wavelength,intensity
380.00,0.0000E+00
385.00,4.0049E-05
390.00,0.0000E+00
395.00,3.5959E-03
400.00,0.0000E+00
405.00,6.0713E-02
410.00,0.0000E+00
415.00,0.0000E+00
420.00,0.0000E+00
425.00,0.0000E+00
430.00,0.0000E+00
435.00,1.5970E-01
440.00,0.0000E+00
445.00,0.0000E+00
450.00,0.0000E+00
455.00,0.0000E+00
460.00,0.0000E+00
465.00,0.0000E+00
470.00,0.0000E+00
475.00,0.0000E+00
480.00,0.0000E+00
485.00,3.4509E-02
490.00,2.7451E-02
495.00,2.2459E-02
500.00,6.3039E-03
505.00,7.7741E-04
510.00,0.0000E+00
515.00,0.0000E+00
520.00,6.2089E-04
525.00,0.0000E+00
530.00,1.0524E-03
535.00,8.4041E-03
540.00,1.1567E-01
545.00,2.8071E-01
550.00,8.1432E-02
555.00,1.7346E-02
560.00,8.4685E-03
565.00,7.3297E-04
570.00,5.6726E-03
575.00,0.0000E+00
580.00,4.9204E-02
585.00,5.0320E-02
590.00,2.8101E-02
595.00,3.3026E-02
600.00,4.0425E-02
605.00,1.6942E-02
610.00,3.3007E-01
615.00,1.7419E-01
620.00,4.0274E-02
625.00,5.8947E-02
630.00,7.6300E-02
635.00,1.3161E-02
640.00,5.7085E-05
645.00,7.6582E-03
650.00,1.5633E-02
655.00,2.7997E-04
660.00,9.5585E-03
665.00,7.2952E-03
670.00,0.0000E+00
675.00,2.3025E-04
680.00,0.0000E+00
685.00,2.7270E-03
690.00,9.2464E-03
695.00,4.0598E-03
700.00,0.0000E+00
705.00,6.4899E-03
710.00,3.3563E-02
715.00,0.0000E+00
720.00,4.3352E-03
725.00,0.0000E+00
730.00,0.0000E+00
