wavelength,intensity
380.00,9.8053E-04
385.00,6.1038E-04
390.00,6.0440E-04
395.00,6.5990E-04
400.00,1.0564E-03
405.00,4.2244E-02
410.00,2.8561E-03
415.00,4.7804E-03
420.00,7.6355E-03
425.00,9.7661E-03
430.00,1.3251E-02
435.00,1.4379E-01
440.00,2.0439E-02
445.00,2.2037E-02
450.00,2.2733E-02
455.00,2.2765E-02
460.00,2.2165E-02
465.00,2.0413E-02
470.00,1.8514E-02
475.00,1.6766E-02
480.00,1.6990E-02
485.00,4.4574E-02
490.00,4.0984E-02
495.00,2.6272E-02
500.00,1.6619E-02
505.00,1.3318E-02
510.00,1.4977E-02
515.00,1.5868E-02
520.00,1.4075E-02
525.00,1.2063E-02
530.00,1.1033E-02
535.00,1.5985E-02
540.00,1.2177E-01
545.00,2.4701E-01
550.00,8.9524E-02
555.00,2.1308E-02
560.00,8.8435E-03
565.00,5.8570E-03
570.00,4.3921E-03
575.00,6.4958E-03
580.00,4.0648E-02
585.00,4.8669E-02
590.00,3.0631E-02
595.00,2.9475E-02
600.00,3.9716E-02
605.00,1.8275E-02
610.00,2.3870E-01
615.00,1.4493E-01
620.00,3.8230E-02
625.00,5.0368E-02
630.00,6.2799E-02
635.00,1.0415E-02
640.00,6.5015E-03
645.00,6.9661E-03
650.00,1.9496E-02
655.00,7.7507E-03
660.00,5.0232E-03
665.00,5.6249E-03
670.00,4.4557E-03
675.00,3.6716E-03
680.00,4.3247E-03
685.00,4.1092E-03
690.00,4.0406E-03
695.00,7.8595E-03
700.00,1.6829E-03
705.00,1.0483E-02
710.00,2.2743E-02
715.00,5.2134E-03
720.00,1.0369E-03
725.00,5.0191E-04
730.00,1.4404E-03
