wavelength,intensity
380.00,2.0618E-05
385.00,0.0000E+00
390.00,0.0000E+00
395.00,0.0000E+00
400.00,0.0000E+00
405.00,5.8553E-02
410.00,7.8794E-04
415.00,8.9426E-04
420.00,1.6048E-03
425.00,2.3895E-03
430.00,2.8494E-03
435.00,1.8476E-01
440.00,2.4608E-03
445.00,3.0102E-03
450.00,3.2886E-03
455.00,2.5115E-03
460.00,1.5869E-03
465.00,2.1395E-03
470.00,2.6657E-03
475.00,2.8321E-03
480.00,5.5681E-03
485.00,2.9526E-02
490.00,2.7395E-02
495.00,1.6961E-02
500.00,8.2074E-03
505.00,3.1752E-03
510.00,2.6087E-03
515.00,2.1108E-03
520.00,1.5201E-03
525.00,2.3656E-03
530.00,3.2270E-03
535.00,9.1807E-03
540.00,1.0574E-01
545.00,2.6334E-01
550.00,7.5085E-02
555.00,1.7731E-02
560.00,6.6161E-03
565.00,4.6826E-03
570.00,3.3848E-03
575.00,7.4000E-03
580.00,4.8053E-02
585.00,4.5605E-02
590.00,3.1944E-02
595.00,3.2230E-02
600.00,4.8039E-02
605.00,2.1300E-02
610.00,3.5029E-01
615.00,1.7527E-01
620.00,4.0562E-02
625.00,5.3332E-02
630.00,7.5994E-02
635.00,1.3265E-02
640.00,6.3065E-03
645.00,7.2264E-03
650.00,2.2241E-02
655.00,7.2085E-03
660.00,3.6821E-03
665.00,6.2841E-03
670.00,3.7997E-03
675.00,6.2915E-04
680.00,2.7585E-03
685.00,4.4479E-03
690.00,1.9684E-03
695.00,4.8253E-03
700.00,0.0000E+00
705.00,1.1888E-02
710.00,2.3910E-02
715.00,3.5731E-03
720.00,0.0000E+00
725.00,3.0976E-04
730.00,4.9348E-04
