wavelength,intensity
380.00,1.7947E-03
385.00,1.1113E-03
390.00,7.1242E-04
395.00,4.5342E-04
400.00,8.9412E-04
405.00,4.8572E-02
410.00,1.0807E-03
415.00,1.6754E-03
420.00,2.1968E-03
425.00,1.4380E-03
430.00,2.1455E-03
435.00,1.2152E-01
440.00,2.7361E-03
445.00,1.9557E-03
450.00,1.7608E-03
455.00,1.4533E-03
460.00,1.4396E-03
465.00,1.7697E-03
470.00,1.3084E-03
475.00,1.7879E-03
480.00,3.8156E-03
485.00,3.1486E-02
490.00,2.9774E-02
495.00,1.6980E-02
500.00,8.0113E-03
505.00,2.9964E-03
510.00,2.0433E-03
515.00,1.8257E-03
520.00,1.8098E-03
525.00,1.9341E-03
530.00,2.9830E-03
535.00,9.6894E-03
540.00,1.1211E-01
545.00,2.5501E-01
550.00,8.3465E-02
555.00,1.9022E-02
560.00,7.4490E-03
565.00,5.3153E-03
570.00,3.9998E-03
575.00,6.0392E-03
580.00,4.4281E-02
585.00,4.8903E-02
590.00,3.2711E-02
595.00,3.5803E-02
600.00,5.1791E-02
605.00,2.2757E-02
610.00,3.0682E-01
615.00,1.8870E-01
620.00,4.1823E-02
625.00,5.7981E-02
630.00,8.1112E-02
635.00,1.2812E-02
640.00,7.7054E-03
645.00,8.3842E-03
650.00,2.4804E-02
655.00,8.6497E-03
660.00,5.7422E-03
665.00,6.3383E-03
670.00,4.9112E-03
675.00,3.9265E-03
680.00,4.4569E-03
685.00,4.6805E-03
690.00,4.7374E-03
695.00,9.6795E-03
700.00,2.1449E-03
705.00,1.3265E-02
710.00,3.0139E-02
715.00,6.0790E-03
720.00,1.1771E-03
725.00,3.9362E-04
730.00,1.5469E-03
