wavelength,intensity
380.00,8.9173E-04
385.00,6.5576E-04
390.00,6.2629E-04
395.00,1.0309E-03
400.00,1.7461E-03
405.00,8.1847E-02
410.00,4.7025E-03
415.00,6.7920E-03
420.00,9.5202E-03
425.00,1.3137E-02
430.00,1.7501E-02
435.00,1.7910E-01
440.00,2.4081E-02
445.00,2.3954E-02
450.00,2.3684E-02
455.00,2.2622E-02
460.00,2.1214E-02
465.00,1.8896E-02
470.00,1.6779E-02
475.00,1.5275E-02
480.00,1.5838E-02
485.00,4.5589E-02
490.00,4.2915E-02
495.00,2.7255E-02
500.00,1.5819E-02
505.00,1.0501E-02
510.00,1.0651E-02
515.00,1.0325E-02
520.00,9.3517E-03
525.00,8.2867E-03
530.00,8.2998E-03
535.00,1.4709E-02
540.00,1.2432E-01
545.00,2.5685E-01
550.00,9.5350E-02
555.00,2.2978E-02
560.00,9.0154E-03
565.00,5.7840E-03
570.00,4.3986E-03
575.00,7.9581E-03
580.00,4.9925E-02
585.00,5.4011E-02
590.00,3.4671E-02
595.00,2.8324E-02
600.00,3.5476E-02
605.00,1.7635E-02
610.00,2.1750E-01
615.00,1.3354E-01
620.00,4.1727E-02
625.00,4.6786E-02
630.00,5.6960E-02
635.00,9.7489E-03
640.00,6.1159E-03
645.00,6.5424E-03
650.00,1.6740E-02
655.00,6.9405E-03
660.00,4.5427E-03
665.00,5.1024E-03
670.00,4.0386E-03
675.00,3.0890E-03
680.00,3.7857E-03
685.00,3.4911E-03
690.00,3.5788E-03
695.00,3.7316E-03
700.00,1.1345E-03
705.00,7.4403E-03
710.00,1.8512E-02
715.00,1.6828E-03
720.00,3.5628E-04
725.00,3.6958E-04
730.00,5.5472E-04
