wavelength,intensity
380.00,0.0000E+00
385.00,0.0000E+00
390.00,0.0000E+00
395.00,6.3660E-04
400.00,1.7704E-03
405.00,6.1100E-02
410.00,3.5558E-03
415.00,6.1427E-04
420.00,4.4454E-03
425.00,4.3856E-03
430.00,4.7083E-03
435.00,1.6707E-01
440.00,6.7856E-03
445.00,6.0207E-03
450.00,7.9102E-03
455.00,5.4683E-03
460.00,5.5280E-03
465.00,4.1061E-03
470.00,6.3846E-03
475.00,6.2828E-03
480.00,8.5996E-03
485.00,3.3355E-02
490.00,3.0034E-02
495.00,1.9145E-02
500.00,9.1855E-03
505.00,4.0952E-03
510.00,4.5556E-03
515.00,3.7790E-03
520.00,3.0394E-03
525.00,4.5637E-03
530.00,4.5294E-03
535.00,9.2792E-03
540.00,1.1082E-01
545.00,2.7309E-01
550.00,7.9692E-02
555.00,1.8037E-02
560.00,7.5650E-03
565.00,5.7631E-03
570.00,3.8040E-03
575.00,7.3453E-03
580.00,4.6626E-02
585.00,4.6558E-02
590.00,3.1854E-02
595.00,3.0628E-02
600.00,4.4413E-02
605.00,2.1176E-02
610.00,3.1481E-01
615.00,1.5941E-01
620.00,3.8686E-02
625.00,5.2744E-02
630.00,6.9891E-02
635.00,1.1675E-02
640.00,5.6585E-03
645.00,6.8821E-03
650.00,2.1147E-02
655.00,8.2906E-03
660.00,3.6556E-03
665.00,6.0013E-03
670.00,3.4359E-03
675.00,3.1427E-04
680.00,3.2072E-03
685.00,4.3379E-03
690.00,2.4496E-03
695.00,3.6877E-03
700.00,2.9217E-03
705.00,1.2071E-02
710.00,2.6000E-02
715.00,3.7969E-03
720.00,2.3331E-04
725.00,2.8439E-03
730.00,2.5454E-03
