wavelength,intensity
380.00,0.0000E+00
385.00,0.0000E+00
390.00,0.0000E+00
395.00,0.0000E+00
400.00,0.0000E+00
405.00,0.0000E+00
410.00,0.0000E+00
415.00,0.0000E+00
420.00,0.0000E+00
425.00,0.0000E+00
430.00,0.0000E+00
435.00,0.0000E+00
440.00,0.0000E+00
445.00,0.0000E+00
450.00,0.0000E+00
455.00,0.0000E+00
460.00,0.0000E+00
465.00,0.0000E+00
470.00,0.0000E+00
475.00,0.0000E+00
480.00,0.0000E+00
485.00,0.0000E+00
490.00,0.0000E+00
495.00,0.0000E+00
500.00,0.0000E+00
505.00,0.0000E+00
510.00,0.0000E+00
515.00,0.0000E+00
520.00,0.0000E+00
525.00,0.0000E+00
530.00,0.0000E+00
535.00,0.0000E+00
540.00,0.0000E+00
545.00,0.0000E+00
550.00,0.0000E+00
555.00,0.0000E+00
560.00,0.0000E+00
565.00,0.0000E+00
570.00,0.0000E+00
575.00,0.0000E+00
580.00,0.0000E+00
585.00,0.0000E+00
590.00,0.0000E+00
595.00,0.0000E+00
600.00,0.0000E+00
605.00,0.0000E+00
610.00,0.0000E+00
615.00,0.0000E+00
620.00,0.0000E+00
625.00,3.9379E-02
630.00,2.2857E-02
635.00,0.0000E+00
640.00,1.6563E+00
645.00,2.4715E-01
650.00,1.6637E+00
655.00,2.9784E+00
660.00,3.2153E+00
665.00,9.0231E-01
670.00,0.0000E+00
675.00,0.0000E+00
680.00,0.0000E+00
685.00,0.0000E+00
690.00,0.0000E+00
695.00,0.0000E+00
700.00,0.0000E+00
705.00,0.0000E+00
710.00,0.0000E+00
715.00,0.0000E+00
720.00,0.0000E+00
725.00,0.0000E+00
730.00,0.0000E+00
