wavelength,intensity
380.00,0.0000E+00
385.00,0.0000E+00
390.00,0.0000E+00
395.00,0.0000E+00
400.00,0.0000E+00
405.00,4.9213E-02
410.00,1.6324E-03
415.00,5.4292E-03
420.00,1.1625E-02
425.00,1.6933E-02
430.00,2.4488E-02
435.00,1.9734E-01
440.00,3.7190E-02
445.00,4.1087E-02
450.00,4.2912E-02
455.00,4.0539E-02
460.00,3.8825E-02
465.00,3.6204E-02
470.00,3.3540E-02
475.00,2.7111E-02
480.00,2.9769E-02
485.00,5.0677E-02
490.00,4.6453E-02
495.00,3.2017E-02
500.00,2.2920E-02
505.00,1.8971E-02
510.00,2.2847E-02
515.00,2.3955E-02
520.00,2.0778E-02
525.00,1.7466E-02
530.00,1.5591E-02
535.00,1.8365E-02
540.00,1.2215E-01
545.00,3.0074E-01
550.00,8.6563E-02
555.00,1.9257E-02
560.00,7.2056E-03
565.00,4.3538E-03
570.00,2.6581E-03
575.00,6.4845E-03
580.00,3.8821E-02
585.00,4.4398E-02
590.00,2.5468E-02
595.00,2.0310E-02
600.00,2.6101E-02
605.00,1.0048E-02
610.00,1.9167E-01
615.00,1.0023E-01
620.00,3.2752E-02
625.00,4.0046E-02
630.00,4.0733E-02
635.00,6.5322E-03
640.00,2.2997E-03
645.00,2.8517E-03
650.00,1.1765E-02
655.00,4.0678E-03
660.00,9.2875E-04
665.00,2.0475E-03
670.00,4.4459E-04
675.00,0.0000E+00
680.00,0.0000E+00
685.00,1.8241E-03
690.00,0.0000E+00
695.00,0.0000E+00
700.00,0.0000E+00
705.00,6.1685E-03
710.00,1.2822E-02
715.00,0.0000E+00
720.00,0.0000E+00
725.00,0.0000E+00
730.00,0.0000E+00
