wavelength,intensity
380.00,0.0000E+00
385.00,0.0000E+00
390.00,0.0000E+00
395.00,0.0000E+00
400.00,0.0000E+00
405.00,3.8092E-02
410.00,0.0000E+00
415.00,0.0000E+00
420.00,0.0000E+00
425.00,0.0000E+00
430.00,0.0000E+00
435.00,1.4268E-01
440.00,0.0000E+00
445.00,0.0000E+00
450.00,0.0000E+00
455.00,0.0000E+00
460.00,0.0000E+00
465.00,0.0000E+00
470.00,0.0000E+00
475.00,0.0000E+00
480.00,0.0000E+00
485.00,1.3007E-02
490.00,1.3915E-02
495.00,2.3255E-04
500.00,0.0000E+00
505.00,0.0000E+00
510.00,0.0000E+00
515.00,0.0000E+00
520.00,0.0000E+00
525.00,0.0000E+00
530.00,0.0000E+00
535.00,0.0000E+00
540.00,1.1822E-01
545.00,3.4347E-01
550.00,7.6100E-02
555.00,4.2866E-03
560.00,0.0000E+00
565.00,0.0000E+00
570.00,0.0000E+00
575.00,0.0000E+00
580.00,4.2429E-02
585.00,3.4141E-02
590.00,1.5603E-02
595.00,1.8136E-02
600.00,3.2827E-02
605.00,4.7576E-03
610.00,4.3197E-01
615.00,2.0144E-01
620.00,2.4346E-02
625.00,4.1685E-02
630.00,7.2020E-02
635.00,0.0000E+00
640.00,0.0000E+00
645.00,0.0000E+00
650.00,2.8075E-04
655.00,0.0000E+00
660.00,0.0000E+00
665.00,0.0000E+00
670.00,0.0000E+00
675.00,0.0000E+00
680.00,0.0000E+00
685.00,0.0000E+00
690.00,0.0000E+00
695.00,0.0000E+00
700.00,0.0000E+00
705.00,0.0000E+00
710.00,0.0000E+00
715.00,0.0000E+00
720.00,0.0000E+00
725.00,0.0000E+00
730.00,0.0000E+00
