wavelength,intensity
380.00,0.0000E+00
385.00,0.0000E+00
390.00,0.0000E+00
395.00,0.0000E+00
400.00,0.0000E+00
405.00,2.8816E-02
410.00,1.1281E-03
415.00,2.5346E-03
420.00,4.1432E-03
425.00,7.1407E-03
430.00,1.0404E-02
435.00,1.4308E-01
440.00,1.6989E-02
445.00,1.7594E-02
450.00,1.7621E-02
455.00,1.7640E-02
460.00,1.6761E-02
465.00,1.5269E-02
470.00,1.3667E-02
475.00,1.2277E-02
480.00,1.2922E-02
485.00,4.1818E-02
490.00,3.9164E-02
495.00,2.4396E-02
500.00,1.3562E-02
505.00,8.6733E-03
510.00,8.5491E-03
515.00,8.6122E-03
520.00,7.5352E-03
525.00,6.8652E-03
530.00,7.0036E-03
535.00,1.3007E-02
540.00,1.2851E-01
545.00,2.7177E-01
550.00,9.5523E-02
555.00,2.1879E-02
560.00,8.5137E-03
565.00,5.4740E-03
570.00,4.1525E-03
575.00,5.9842E-03
580.00,3.8184E-02
585.00,5.2752E-02
590.00,3.1875E-02
595.00,2.8197E-02
600.00,3.7411E-02
605.00,1.6705E-02
610.00,2.4170E-01
615.00,1.3544E-01
620.00,3.9363E-02
625.00,5.0247E-02
630.00,5.8097E-02
635.00,8.9464E-03
640.00,5.5281E-03
645.00,6.2239E-03
650.00,1.7960E-02
655.00,7.3640E-03
660.00,4.2248E-03
665.00,4.8931E-03
670.00,3.6817E-03
675.00,2.6060E-03
680.00,3.6840E-03
685.00,3.1645E-03
690.00,2.9561E-03
695.00,2.8899E-03
700.00,9.5869E-05
705.00,7.0304E-03
710.00,1.9410E-02
715.00,1.0094E-03
720.00,0.0000E+00
725.00,0.0000E+00
730.00,0.0000E+00
