wavelength,intensity
380.00,3.4405E-03
385.00,3.9406E-03
390.00,4.4965E-03
395.00,4.8741E-03
400.00,5.4720E-03
405.00,6.0276E-03
410.00,6.5991E-03
415.00,7.2026E-03
420.00,7.9878E-03
425.00,8.7360E-03
430.00,9.5622E-03
435.00,1.0214E-02
440.00,1.1190E-02
445.00,1.2148E-02
450.00,1.3145E-02
455.00,1.3981E-02
460.00,1.5021E-02
465.00,1.6259E-02
470.00,1.7248E-02
475.00,1.8368E-02
480.00,1.9767E-02
485.00,2.0718E-02
490.00,2.2097E-02
495.00,2.3511E-02
500.00,2.5061E-02
505.00,2.6788E-02
510.00,2.8587E-02
515.00,3.0607E-02
520.00,3.2648E-02
525.00,3.4747E-02
530.00,3.6818E-02
535.00,3.8737E-02
540.00,4.0660E-02
545.00,4.2530E-02
550.00,4.4259E-02
555.00,4.5991E-02
560.00,4.7882E-02
565.00,4.9358E-02
570.00,5.0972E-02
575.00,5.2489E-02
580.00,5.4051E-02
585.00,5.5475E-02
590.00,5.7086E-02
595.00,5.8579E-02
600.00,5.9829E-02
605.00,6.1194E-02
610.00,6.2753E-02
615.00,6.4204E-02
620.00,6.5441E-02
625.00,6.6840E-02
630.00,6.8063E-02
635.00,6.9379E-02
640.00,7.0571E-02
645.00,7.1755E-02
650.00,7.2964E-02
655.00,7.4132E-02
660.00,7.5230E-02
665.00,7.6196E-02
670.00,7.7187E-02
675.00,7.8295E-02
680.00,7.9289E-02
685.00,8.0356E-02
690.00,8.1686E-02
695.00,8.2677E-02
700.00,8.3512E-02
705.00,8.4866E-02
710.00,8.5473E-02
715.00,8.6629E-02
720.00,8.7852E-02
725.00,8.8403E-02
730.00,8.9359E-02
