wavelength,intensity
380.00,2.9511E-03
385.00,3.3910E-03
390.00,3.8542E-03
395.00,4.2652E-03
400.00,4.8381E-03
405.00,5.3062E-03
410.00,5.9080E-03
415.00,6.3667E-03
420.00,7.0981E-03
425.00,7.7972E-03
430.00,8.5080E-03
435.00,9.2039E-03
440.00,1.0090E-02
445.00,1.0854E-02
450.00,1.1628E-02
455.00,1.2586E-02
460.00,1.3578E-02
465.00,1.4627E-02
470.00,1.5690E-02
475.00,1.6697E-02
480.00,1.7889E-02
485.00,1.8913E-02
490.00,2.0126E-02
495.00,2.1408E-02
500.00,2.2962E-02
505.00,2.4680E-02
510.00,2.6457E-02
515.00,2.8489E-02
520.00,3.0552E-02
525.00,3.2733E-02
530.00,3.4878E-02
535.00,3.6991E-02
540.00,3.9155E-02
545.00,4.1498E-02
550.00,4.3512E-02
555.00,4.5860E-02
560.00,4.8098E-02
565.00,4.9798E-02
570.00,5.1789E-02
575.00,5.3605E-02
580.00,5.5551E-02
585.00,5.7156E-02
590.00,5.9013E-02
595.00,6.0627E-02
600.00,6.2071E-02
605.00,6.3439E-02
610.00,6.4941E-02
615.00,6.6326E-02
620.00,6.7416E-02
625.00,6.8739E-02
630.00,7.0013E-02
635.00,7.1205E-02
640.00,7.2250E-02
645.00,7.3398E-02
650.00,7.4564E-02
655.00,7.5654E-02
660.00,7.6591E-02
665.00,7.7308E-02
670.00,7.7846E-02
675.00,7.8658E-02
680.00,7.9716E-02
685.00,8.0420E-02
690.00,8.1479E-02
695.00,8.2564E-02
700.00,8.3627E-02
705.00,8.5057E-02
710.00,8.5793E-02
715.00,8.7183E-02
720.00,8.7837E-02
725.00,8.9106E-02
730.00,8.9999E-02
