wavelength,intensity
380.00,5.2937E-03
385.00,5.9865E-03
390.00,6.6505E-03
395.00,7.2619E-03
400.00,7.9994E-03
405.00,8.6829E-03
410.00,9.5936E-03
415.00,1.0305E-02
420.00,1.1194E-02
425.00,1.2161E-02
430.00,1.3145E-02
435.00,1.4076E-02
440.00,1.5157E-02
445.00,1.6271E-02
450.00,1.7389E-02
455.00,1.8390E-02
460.00,1.9596E-02
465.00,2.0928E-02
470.00,2.2216E-02
475.00,2.3462E-02
480.00,2.4884E-02
485.00,2.6001E-02
490.00,2.7415E-02
495.00,2.8753E-02
500.00,3.0155E-02
505.00,3.1607E-02
510.00,3.2940E-02
515.00,3.4375E-02
520.00,3.5747E-02
525.00,3.7131E-02
530.00,3.8526E-02
535.00,3.9886E-02
540.00,4.1285E-02
545.00,4.2675E-02
550.00,4.4001E-02
555.00,4.5397E-02
560.00,4.6919E-02
565.00,4.8192E-02
570.00,4.9419E-02
575.00,5.0767E-02
580.00,5.2100E-02
585.00,5.3346E-02
590.00,5.4867E-02
595.00,5.6197E-02
600.00,5.7506E-02
605.00,5.8905E-02
610.00,6.0276E-02
615.00,6.1738E-02
620.00,6.2933E-02
625.00,6.4362E-02
630.00,6.5640E-02
635.00,6.6886E-02
640.00,6.8114E-02
645.00,6.9275E-02
650.00,7.0497E-02
655.00,7.1653E-02
660.00,7.3093E-02
665.00,7.4240E-02
670.00,7.5756E-02
675.00,7.7083E-02
680.00,7.8613E-02
685.00,8.0060E-02
690.00,8.1522E-02
695.00,8.2918E-02
700.00,8.3902E-02
705.00,8.5244E-02
710.00,8.6028E-02
715.00,8.7300E-02
720.00,8.8192E-02
725.00,8.8945E-02
730.00,8.9753E-02
