wavelength,intensity
380.00,4.4765E-04
385.00,7.3976E-04
390.00,1.3446E-03
395.00,2.5460E-03
400.00,3.4018E-03
405.00,3.6385E-03
410.00,4.7923E-03
415.00,5.7624E-03
420.00,6.3412E-03
425.00,6.9928E-03
430.00,7.9236E-03
435.00,8.4649E-03
440.00,9.8219E-03
445.00,1.0197E-02
450.00,1.0863E-02
455.00,1.2619E-02
460.00,1.2844E-02
465.00,1.4060E-02
470.00,1.5469E-02
475.00,1.5952E-02
480.00,1.7375E-02
485.00,1.8103E-02
490.00,1.9269E-02
495.00,2.0413E-02
500.00,2.2269E-02
505.00,2.3933E-02
510.00,2.5589E-02
515.00,2.7777E-02
520.00,2.9331E-02
525.00,3.1904E-02
530.00,3.4346E-02
535.00,3.6328E-02
540.00,3.8911E-02
545.00,4.0952E-02
550.00,4.3468E-02
555.00,4.5306E-02
560.00,4.8307E-02
565.00,4.9942E-02
570.00,5.1678E-02
575.00,5.3990E-02
580.00,5.6250E-02
585.00,5.7754E-02
590.00,5.9203E-02
595.00,6.1074E-02
600.00,6.2875E-02
605.00,6.4336E-02
610.00,6.5636E-02
615.00,6.7224E-02
620.00,6.8733E-02
625.00,6.9278E-02
630.00,7.1337E-02
635.00,7.2707E-02
640.00,7.3553E-02
645.00,7.4970E-02
650.00,7.5764E-02
655.00,7.6911E-02
660.00,7.8133E-02
665.00,7.8748E-02
670.00,7.9729E-02
675.00,8.0601E-02
680.00,8.2224E-02
685.00,8.2682E-02
690.00,8.4719E-02
695.00,8.5199E-02
700.00,8.6882E-02
705.00,8.8928E-02
710.00,8.9704E-02
715.00,9.1192E-02
720.00,9.2295E-02
725.00,9.3024E-02
730.00,9.5471E-02
