wavelength,intensity
380.00,3.1822E-03
385.00,3.6799E-03
390.00,4.1778E-03
395.00,4.5567E-03
400.00,5.1788E-03
405.00,5.7206E-03
410.00,6.3274E-03
415.00,6.9590E-03
420.00,7.6489E-03
425.00,8.3267E-03
430.00,9.1089E-03
435.00,9.9446E-03
440.00,1.0802E-02
445.00,1.1724E-02
450.00,1.2650E-02
455.00,1.3509E-02
460.00,1.4494E-02
465.00,1.5738E-02
470.00,1.6656E-02
475.00,1.7869E-02
480.00,1.9084E-02
485.00,2.0223E-02
490.00,2.1515E-02
495.00,2.2862E-02
500.00,2.4435E-02
505.00,2.6137E-02
510.00,2.7894E-02
515.00,2.9958E-02
520.00,3.1982E-02
525.00,3.4166E-02
530.00,3.6297E-02
535.00,3.8272E-02
540.00,4.0335E-02
545.00,4.2390E-02
550.00,4.4299E-02
555.00,4.6149E-02
560.00,4.8172E-02
565.00,4.9732E-02
570.00,5.1407E-02
575.00,5.3004E-02
580.00,5.4660E-02
585.00,5.6144E-02
590.00,5.7712E-02
595.00,5.9130E-02
600.00,6.0423E-02
605.00,6.1812E-02
610.00,6.3215E-02
615.00,6.4659E-02
620.00,6.5670E-02
625.00,6.7051E-02
630.00,6.8190E-02
635.00,6.9246E-02
640.00,7.0334E-02
645.00,7.1261E-02
650.00,7.2243E-02
655.00,7.3177E-02
660.00,7.4100E-02
665.00,7.4551E-02
670.00,7.5137E-02
675.00,7.5566E-02
680.00,7.6430E-02
685.00,7.6910E-02
690.00,7.7713E-02
695.00,7.8383E-02
700.00,7.8900E-02
705.00,8.0057E-02
710.00,8.0156E-02
715.00,8.0644E-02
720.00,8.1530E-02
725.00,8.1721E-02
730.00,8.2593E-02
