wavelength,intensity
380.00,2.9409E-03
385.00,3.3625E-03
390.00,3.7228E-03
395.00,4.2565E-03
400.00,4.7273E-03
405.00,5.1996E-03
410.00,5.7014E-03
415.00,6.3911E-03
420.00,7.0828E-03
425.00,7.8885E-03
430.00,8.5518E-03
435.00,9.1501E-03
440.00,9.9107E-03
445.00,1.1106E-02
450.00,1.1671E-02
455.00,1.2681E-02
460.00,1.3749E-02
465.00,1.4731E-02
470.00,1.5679E-02
475.00,1.6803E-02
480.00,1.7916E-02
485.00,1.8905E-02
490.00,2.0076E-02
495.00,2.1426E-02
500.00,2.2948E-02
505.00,2.4557E-02
510.00,2.6347E-02
515.00,2.8317E-02
520.00,3.0509E-02
525.00,3.2615E-02
530.00,3.4672E-02
535.00,3.6998E-02
540.00,3.9020E-02
545.00,4.1450E-02
550.00,4.3656E-02
555.00,4.5712E-02
560.00,4.8095E-02
565.00,4.9964E-02
570.00,5.1996E-02
575.00,5.3723E-02
580.00,5.5568E-02
585.00,5.7432E-02
590.00,5.9080E-02
595.00,6.0570E-02
600.00,6.2403E-02
605.00,6.3580E-02
610.00,6.5102E-02
615.00,6.6239E-02
620.00,6.7444E-02
625.00,6.8676E-02
630.00,6.9751E-02
635.00,7.1372E-02
640.00,7.1827E-02
645.00,7.3234E-02
650.00,7.4047E-02
655.00,7.4800E-02
660.00,7.6223E-02
665.00,7.6604E-02
670.00,7.7483E-02
675.00,7.8078E-02
680.00,7.8809E-02
685.00,7.9635E-02
690.00,8.0755E-02
695.00,8.1916E-02
700.00,8.2658E-02
705.00,8.3670E-02
710.00,8.4384E-02
715.00,8.5604E-02
720.00,8.6365E-02
725.00,8.7044E-02
730.00,8.8385E-02
