wavelength,intensity
380.00,3.3073E-03
385.00,3.7457E-03
390.00,4.2076E-03
395.00,4.6112E-03
400.00,5.2875E-03
405.00,5.6752E-03
410.00,6.2950E-03
415.00,6.8559E-03
420.00,7.4948E-03
425.00,8.3010E-03
430.00,9.0309E-03
435.00,9.8376E-03
440.00,1.0592E-02
445.00,1.1425E-02
450.00,1.2385E-02
455.00,1.3298E-02
460.00,1.4201E-02
465.00,1.5412E-02
470.00,1.6329E-02
475.00,1.7433E-02
480.00,1.8649E-02
485.00,1.9591E-02
490.00,2.0702E-02
495.00,2.2028E-02
500.00,2.3538E-02
505.00,2.5179E-02
510.00,2.7015E-02
515.00,2.8899E-02
520.00,3.0944E-02
525.00,3.3144E-02
530.00,3.5345E-02
535.00,3.7429E-02
540.00,3.9629E-02
545.00,4.1793E-02
550.00,4.3896E-02
555.00,4.6051E-02
560.00,4.8325E-02
565.00,5.0035E-02
570.00,5.1915E-02
575.00,5.3648E-02
580.00,5.5561E-02
585.00,5.7033E-02
590.00,5.8568E-02
595.00,6.0298E-02
600.00,6.1553E-02
605.00,6.2909E-02
610.00,6.4123E-02
615.00,6.5349E-02
620.00,6.6435E-02
625.00,6.7603E-02
630.00,6.8700E-02
635.00,6.9656E-02
640.00,7.0565E-02
645.00,7.1850E-02
650.00,7.2343E-02
655.00,7.3118E-02
660.00,7.4074E-02
665.00,7.4133E-02
670.00,7.5101E-02
675.00,7.5500E-02
680.00,7.6075E-02
685.00,7.6838E-02
690.00,7.7589E-02
695.00,7.8639E-02
700.00,7.9237E-02
705.00,8.0464E-02
710.00,8.0810E-02
715.00,8.1760E-02
720.00,8.2323E-02
725.00,8.3033E-02
730.00,8.4166E-02
