wavelength,intensity
380.00,1.1276E-02
385.00,1.1582E-02
390.00,1.1751E-02
395.00,1.1987E-02
400.00,1.2442E-02
405.00,1.2663E-02
410.00,1.3119E-02
415.00,1.3478E-02
420.00,1.4186E-02
425.00,1.4800E-02
430.00,1.5289E-02
435.00,1.5852E-02
440.00,1.6557E-02
445.00,1.7194E-02
450.00,1.7854E-02
455.00,1.8514E-02
460.00,1.9460E-02
465.00,2.0153E-02
470.00,2.0647E-02
475.00,2.1147E-02
480.00,2.1382E-02
485.00,2.1425E-02
490.00,2.1811E-02
495.00,2.2701E-02
500.00,2.3779E-02
505.00,2.5237E-02
510.00,2.6702E-02
515.00,2.8480E-02
520.00,3.0266E-02
525.00,3.2367E-02
530.00,3.4328E-02
535.00,3.6776E-02
540.00,3.8671E-02
545.00,4.0961E-02
550.00,4.2878E-02
555.00,4.5190E-02
560.00,4.7410E-02
565.00,4.9190E-02
570.00,5.1240E-02
575.00,5.3382E-02
580.00,5.4894E-02
585.00,5.6834E-02
590.00,5.8616E-02
595.00,6.0224E-02
600.00,6.1823E-02
605.00,6.3508E-02
610.00,6.4873E-02
615.00,6.6689E-02
620.00,6.7504E-02
625.00,6.8939E-02
630.00,7.0314E-02
635.00,7.1460E-02
640.00,7.2793E-02
645.00,7.4529E-02
650.00,7.5164E-02
655.00,7.6354E-02
660.00,7.7733E-02
665.00,7.8302E-02
670.00,7.9020E-02
675.00,8.0305E-02
680.00,8.1456E-02
685.00,8.2596E-02
690.00,8.4065E-02
695.00,8.5311E-02
700.00,8.7248E-02
705.00,8.8287E-02
710.00,8.9216E-02
715.00,9.1303E-02
720.00,9.2858E-02
725.00,9.4338E-02
730.00,9.5404E-02
