wavelength,intensity
380.00,4.0763E-03
385.00,4.5867E-03
390.00,5.2318E-03
395.00,5.9947E-03
400.00,6.2100E-03
405.00,6.9195E-03
410.00,7.6925E-03
415.00,8.2660E-03
420.00,8.8566E-03
425.00,9.7537E-03
430.00,1.0748E-02
435.00,1.1154E-02
440.00,1.1863E-02
445.00,1.3131E-02
450.00,1.4088E-02
455.00,1.4857E-02
460.00,1.5618E-02
465.00,1.6686E-02
470.00,1.7758E-02
475.00,1.9093E-02
480.00,1.9982E-02
485.00,2.1122E-02
490.00,2.2205E-02
495.00,2.3561E-02
500.00,2.4779E-02
505.00,2.6649E-02
510.00,2.8282E-02
515.00,3.0260E-02
520.00,3.2223E-02
525.00,3.4368E-02
530.00,3.6310E-02
535.00,3.8330E-02
540.00,4.0607E-02
545.00,4.2685E-02
550.00,4.4436E-02
555.00,4.6396E-02
560.00,4.8505E-02
565.00,5.0403E-02
570.00,5.1847E-02
575.00,5.3634E-02
580.00,5.4798E-02
585.00,5.6758E-02
590.00,5.7929E-02
595.00,5.9323E-02
600.00,6.0333E-02
605.00,6.1506E-02
610.00,6.2369E-02
615.00,6.3502E-02
620.00,6.4028E-02
625.00,6.5147E-02
630.00,6.5695E-02
635.00,6.6702E-02
640.00,6.7069E-02
645.00,6.8008E-02
650.00,6.8537E-02
655.00,6.9274E-02
660.00,6.9980E-02
665.00,7.0235E-02
670.00,7.0483E-02
675.00,7.0838E-02
680.00,7.1346E-02
685.00,7.2417E-02
690.00,7.2840E-02
695.00,7.3516E-02
700.00,7.3815E-02
705.00,7.5087E-02
710.00,7.5886E-02
715.00,7.7049E-02
720.00,7.7571E-02
725.00,7.8301E-02
730.00,7.9531E-02
