wavelength,intensity
380.00,3.2497E-03
385.00,3.7953E-03
390.00,4.7461E-03
395.00,5.2468E-03
400.00,5.5233E-03
405.00,6.3236E-03
410.00,7.0960E-03
415.00,7.6182E-03
420.00,8.0503E-03
425.00,8.8578E-03
430.00,1.0068E-02
435.00,1.0091E-02
440.00,1.1525E-02
445.00,1.2228E-02
450.00,1.2955E-02
455.00,1.3783E-02
460.00,1.4600E-02
465.00,1.5420E-02
470.00,1.6782E-02
475.00,1.8058E-02
480.00,1.9176E-02
485.00,2.0127E-02
490.00,2.1279E-02
495.00,2.2533E-02
500.00,2.3765E-02
505.00,2.5691E-02
510.00,2.7615E-02
515.00,2.9459E-02
520.00,3.1179E-02
525.00,3.3365E-02
530.00,3.5651E-02
535.00,3.7549E-02
540.00,3.9662E-02
545.00,4.2274E-02
550.00,4.3885E-02
555.00,4.6129E-02
560.00,4.8405E-02
565.00,5.0277E-02
570.00,5.1999E-02
575.00,5.3380E-02
580.00,5.5366E-02
585.00,5.7203E-02
590.00,5.8446E-02
595.00,6.0133E-02
600.00,6.1139E-02
605.00,6.2425E-02
610.00,6.3331E-02
615.00,6.4880E-02
620.00,6.5662E-02
625.00,6.6668E-02
630.00,6.7375E-02
635.00,6.8954E-02
640.00,6.9387E-02
645.00,7.0487E-02
650.00,7.0823E-02
655.00,7.2272E-02
660.00,7.3695E-02
665.00,7.3656E-02
670.00,7.4346E-02
675.00,7.5427E-02
680.00,7.5853E-02
685.00,7.6996E-02
690.00,7.8621E-02
695.00,8.0448E-02
700.00,8.1913E-02
705.00,8.2773E-02
710.00,8.4619E-02
715.00,8.5788E-02
720.00,8.8103E-02
725.00,8.8494E-02
730.00,9.0978E-02
