wavelength,intensity
380.00,3.0478E-03
385.00,3.6013E-03
390.00,3.9930E-03
395.00,4.3337E-03
400.00,4.8877E-03
405.00,5.4457E-03
410.00,5.9822E-03
415.00,6.5107E-03
420.00,7.2242E-03
425.00,7.8786E-03
430.00,8.7606E-03
435.00,9.3296E-03
440.00,1.0162E-02
445.00,1.1148E-02
450.00,1.1814E-02
455.00,1.2742E-02
460.00,1.3824E-02
465.00,1.4786E-02
470.00,1.5660E-02
475.00,1.6996E-02
480.00,1.7973E-02
485.00,1.8863E-02
490.00,2.0129E-02
495.00,2.1442E-02
500.00,2.2873E-02
505.00,2.4508E-02
510.00,2.6163E-02
515.00,2.8274E-02
520.00,3.0364E-02
525.00,3.2493E-02
530.00,3.4612E-02
535.00,3.6931E-02
540.00,3.9209E-02
545.00,4.1224E-02
550.00,4.3383E-02
555.00,4.5826E-02
560.00,4.8046E-02
565.00,5.0000E-02
570.00,5.2151E-02
575.00,5.3929E-02
580.00,5.5497E-02
585.00,5.7503E-02
590.00,5.9130E-02
595.00,6.0923E-02
600.00,6.2192E-02
605.00,6.3558E-02
610.00,6.4924E-02
615.00,6.6182E-02
620.00,6.7514E-02
625.00,6.8700E-02
630.00,7.0218E-02
635.00,7.1075E-02
640.00,7.1961E-02
645.00,7.3474E-02
650.00,7.4499E-02
655.00,7.5159E-02
660.00,7.6465E-02
665.00,7.6630E-02
670.00,7.7593E-02
675.00,7.8065E-02
680.00,7.8986E-02
685.00,7.9393E-02
690.00,8.0652E-02
695.00,8.1697E-02
700.00,8.2919E-02
705.00,8.4002E-02
710.00,8.4505E-02
715.00,8.5851E-02
720.00,8.6542E-02
725.00,8.7826E-02
730.00,8.9002E-02
