wavelength,intensity
380.00,3.0694E-03
385.00,3.5629E-03
390.00,4.0479E-03
395.00,4.3517E-03
400.00,4.9564E-03
405.00,5.5265E-03
410.00,6.0235E-03
415.00,6.6810E-03
420.00,7.3221E-03
425.00,8.0043E-03
430.00,8.8390E-03
435.00,9.5842E-03
440.00,1.0328E-02
445.00,1.1205E-02
450.00,1.2106E-02
455.00,1.2854E-02
460.00,1.3948E-02
465.00,1.5105E-02
470.00,1.5975E-02
475.00,1.7054E-02
480.00,1.8466E-02
485.00,1.9403E-02
490.00,2.0523E-02
495.00,2.1888E-02
500.00,2.3416E-02
505.00,2.5030E-02
510.00,2.6852E-02
515.00,2.8957E-02
520.00,3.0898E-02
525.00,3.3024E-02
530.00,3.5349E-02
535.00,3.7509E-02
540.00,3.9499E-02
545.00,4.1881E-02
550.00,4.3943E-02
555.00,4.6350E-02
560.00,4.8383E-02
565.00,5.0069E-02
570.00,5.2022E-02
575.00,5.3747E-02
580.00,5.5546E-02
585.00,5.7176E-02
590.00,5.8858E-02
595.00,6.0347E-02
600.00,6.1770E-02
605.00,6.3104E-02
610.00,6.4172E-02
615.00,6.5294E-02
620.00,6.6442E-02
625.00,6.7456E-02
630.00,6.8258E-02
635.00,6.9270E-02
640.00,7.0026E-02
645.00,7.1058E-02
650.00,7.2119E-02
655.00,7.2598E-02
660.00,7.3435E-02
665.00,7.3676E-02
670.00,7.4366E-02
675.00,7.4982E-02
680.00,7.5268E-02
685.00,7.5517E-02
690.00,7.6843E-02
695.00,7.7766E-02
700.00,7.7912E-02
705.00,7.8876E-02
710.00,7.9313E-02
715.00,8.0379E-02
720.00,8.1219E-02
725.00,8.1359E-02
730.00,8.2226E-02
