wavelength,intensity
380.00,1.1543E-03
385.00,2.0398E-03
390.00,2.4380E-03
395.00,3.8362E-03
400.00,3.0232E-03
405.00,4.6305E-03
410.00,5.0979E-03
415.00,5.4355E-03
420.00,5.1253E-03
425.00,7.9703E-03
430.00,7.0691E-03
435.00,7.6001E-03
440.00,9.2499E-03
445.00,1.0124E-02
450.00,1.0929E-02
455.00,1.1915E-02
460.00,1.1715E-02
465.00,1.3511E-02
470.00,1.4838E-02
475.00,1.5803E-02
480.00,1.7205E-02
485.00,1.8286E-02
490.00,1.9761E-02
495.00,2.0789E-02
500.00,2.2436E-02
505.00,2.3831E-02
510.00,2.6288E-02
515.00,2.8037E-02
520.00,2.9385E-02
525.00,3.2240E-02
530.00,3.3683E-02
535.00,3.6221E-02
540.00,3.8825E-02
545.00,4.1135E-02
550.00,4.2956E-02
555.00,4.5533E-02
560.00,4.8231E-02
565.00,4.9534E-02
570.00,5.2183E-02
575.00,5.4586E-02
580.00,5.5301E-02
585.00,5.8315E-02
590.00,5.9933E-02
595.00,6.1023E-02
600.00,6.2494E-02
605.00,6.4263E-02
610.00,6.5453E-02
615.00,6.7836E-02
620.00,6.7522E-02
625.00,6.9199E-02
630.00,7.1064E-02
635.00,7.3128E-02
640.00,7.3690E-02
645.00,7.4422E-02
650.00,7.5285E-02
655.00,7.6982E-02
660.00,7.8479E-02
665.00,7.8966E-02
670.00,8.0131E-02
675.00,8.0935E-02
680.00,8.2203E-02
685.00,8.3110E-02
690.00,8.4851E-02
695.00,8.6260E-02
700.00,8.6886E-02
705.00,8.8915E-02
710.00,9.1024E-02
715.00,9.2396E-02
720.00,9.3554E-02
725.00,9.5692E-02
730.00,9.8325E-02
