wavelength,intensity
380.00,6.9093E-04
385.00,7.8447E-04
390.00,2.0439E-03
395.00,3.4218E-03
400.00,4.7217E-03
405.00,5.6675E-03
410.00,6.2937E-03
415.00,7.2804E-03
420.00,8.1627E-03
425.00,8.7990E-03
430.00,1.0007E-02
435.00,1.0279E-02
440.00,1.1242E-02
445.00,1.2281E-02
450.00,1.3059E-02
455.00,1.3896E-02
460.00,1.4720E-02
465.00,1.5558E-02
470.00,1.7010E-02
475.00,1.7962E-02
480.00,1.9134E-02
485.00,1.9942E-02
490.00,2.1251E-02
495.00,2.2330E-02
500.00,2.4170E-02
505.00,2.6029E-02
510.00,2.7551E-02
515.00,2.9387E-02
520.00,3.1468E-02
525.00,3.3682E-02
530.00,3.5543E-02
535.00,3.7890E-02
540.00,3.9960E-02
545.00,4.1834E-02
550.00,4.4210E-02
555.00,4.6100E-02
560.00,4.8428E-02
565.00,5.0015E-02
570.00,5.2362E-02
575.00,5.4034E-02
580.00,5.5438E-02
585.00,5.6821E-02
590.00,5.8377E-02
595.00,6.0017E-02
600.00,6.0904E-02
605.00,6.2361E-02
610.00,6.3587E-02
615.00,6.4660E-02
620.00,6.5469E-02
625.00,6.6077E-02
630.00,6.7309E-02
635.00,6.7792E-02
640.00,6.9008E-02
645.00,7.0221E-02
650.00,7.0707E-02
655.00,7.1060E-02
660.00,7.1880E-02
665.00,7.2347E-02
670.00,7.3311E-02
675.00,7.3629E-02
680.00,7.4609E-02
685.00,7.4970E-02
690.00,7.6772E-02
695.00,7.7852E-02
700.00,7.8550E-02
705.00,8.0414E-02
710.00,8.1423E-02
715.00,8.2808E-02
720.00,8.3849E-02
725.00,8.5773E-02
730.00,8.7095E-02
