wavelength,intensity
380.00,3.0780E-03
385.00,3.5214E-03
390.00,3.9681E-03
395.00,4.4210E-03
400.00,4.9848E-03
405.00,5.4559E-03
410.00,5.9105E-03
415.00,6.5154E-03
420.00,7.2201E-03
425.00,7.8859E-03
430.00,8.6735E-03
435.00,9.2257E-03
440.00,1.0140E-02
445.00,1.1152E-02
450.00,1.1973E-02
455.00,1.2805E-02
460.00,1.3869E-02
465.00,1.4886E-02
470.00,1.5835E-02
475.00,1.6981E-02
480.00,1.8251E-02
485.00,1.9256E-02
490.00,2.0296E-02
495.00,2.1655E-02
500.00,2.3173E-02
505.00,2.4788E-02
510.00,2.6562E-02
515.00,2.8643E-02
520.00,3.0638E-02
525.00,3.2798E-02
530.00,3.4966E-02
535.00,3.7064E-02
540.00,3.9325E-02
545.00,4.1588E-02
550.00,4.3561E-02
555.00,4.5884E-02
560.00,4.8165E-02
565.00,5.0078E-02
570.00,5.1966E-02
575.00,5.3705E-02
580.00,5.5633E-02
585.00,5.7162E-02
590.00,5.9008E-02
595.00,6.0486E-02
600.00,6.1820E-02
605.00,6.3181E-02
610.00,6.4704E-02
615.00,6.6039E-02
620.00,6.6949E-02
625.00,6.8269E-02
630.00,6.9624E-02
635.00,7.0759E-02
640.00,7.1685E-02
645.00,7.2779E-02
650.00,7.3597E-02
655.00,7.4436E-02
660.00,7.5428E-02
665.00,7.6037E-02
670.00,7.6732E-02
675.00,7.7412E-02
680.00,7.8087E-02
685.00,7.8916E-02
690.00,7.9923E-02
695.00,8.0890E-02
700.00,8.1621E-02
705.00,8.2659E-02
710.00,8.3242E-02
715.00,8.4295E-02
720.00,8.5246E-02
725.00,8.6019E-02
730.00,8.7185E-02
