wavelength,intensity
380.00,7.0591E-05
385.00,0.0000E+00
390.00,8.3844E-04
395.00,2.3006E-03
400.00,2.6235E-03
405.00,2.6308E-03
410.00,3.6464E-03
415.00,4.0006E-03
420.00,5.5141E-03
425.00,5.6301E-03
430.00,6.1243E-03
435.00,6.7755E-03
440.00,7.7569E-03
445.00,8.5170E-03
450.00,9.6739E-03
455.00,1.0959E-02
460.00,1.2370E-02
465.00,1.3180E-02
470.00,1.4518E-02
475.00,1.5856E-02
480.00,1.7243E-02
485.00,1.8231E-02
490.00,1.9753E-02
495.00,2.1395E-02
500.00,2.3153E-02
505.00,2.4835E-02
510.00,2.6923E-02
515.00,2.8622E-02
520.00,3.0844E-02
525.00,3.3043E-02
530.00,3.5347E-02
535.00,3.7682E-02
540.00,3.9140E-02
545.00,4.1987E-02
550.00,4.3871E-02
555.00,4.6200E-02
560.00,4.8500E-02
565.00,5.0511E-02
570.00,5.2032E-02
575.00,5.4358E-02
580.00,5.5575E-02
585.00,5.7930E-02
590.00,5.9619E-02
595.00,6.0310E-02
600.00,6.2084E-02
605.00,6.3330E-02
610.00,6.4437E-02
615.00,6.5319E-02
620.00,6.6225E-02
625.00,6.7550E-02
630.00,6.7755E-02
635.00,6.8789E-02
640.00,7.1208E-02
645.00,7.0949E-02
650.00,7.1420E-02
655.00,7.2970E-02
660.00,7.3109E-02
665.00,7.3355E-02
670.00,7.4249E-02
675.00,7.5164E-02
680.00,7.5449E-02
685.00,7.5104E-02
690.00,7.4753E-02
695.00,7.8205E-02
700.00,7.6184E-02
705.00,7.9252E-02
710.00,7.6840E-02
715.00,7.9610E-02
720.00,8.0770E-02
725.00,8.0803E-02
730.00,8.0803E-02
