wavelength,intensity
380.00,7.8073E-05
385.00,3.7325E-04
390.00,1.2235E-03
395.00,2.2407E-03
400.00,2.6742E-03
405.00,4.0995E-03
410.00,5.5225E-03
415.00,6.4707E-03
420.00,6.6472E-03
425.00,7.9101E-03
430.00,8.6626E-03
435.00,9.1276E-03
440.00,1.0119E-02
445.00,1.1247E-02
450.00,1.2026E-02
455.00,1.2563E-02
460.00,1.3432E-02
465.00,1.4640E-02
470.00,1.5920E-02
475.00,1.7049E-02
480.00,1.8589E-02
485.00,1.9428E-02
490.00,2.0411E-02
495.00,2.2122E-02
500.00,2.3422E-02
505.00,2.5397E-02
510.00,2.7213E-02
515.00,2.8988E-02
520.00,3.1169E-02
525.00,3.3271E-02
530.00,3.5516E-02
535.00,3.7386E-02
540.00,3.9656E-02
545.00,4.2324E-02
550.00,4.4139E-02
555.00,4.6336E-02
560.00,4.8699E-02
565.00,5.0134E-02
570.00,5.2334E-02
575.00,5.4005E-02
580.00,5.5440E-02
585.00,5.7073E-02
590.00,5.8998E-02
595.00,5.9997E-02
600.00,6.1873E-02
605.00,6.2754E-02
610.00,6.3535E-02
615.00,6.4877E-02
620.00,6.5623E-02
625.00,6.6920E-02
630.00,6.7708E-02
635.00,6.8652E-02
640.00,6.9562E-02
645.00,6.9885E-02
650.00,7.0740E-02
655.00,7.1858E-02
660.00,7.3030E-02
665.00,7.2447E-02
670.00,7.2998E-02
675.00,7.3821E-02
680.00,7.4570E-02
685.00,7.5134E-02
690.00,7.5784E-02
695.00,7.6635E-02
700.00,7.6850E-02
705.00,7.8903E-02
710.00,7.9713E-02
715.00,8.0142E-02
720.00,8.2012E-02
725.00,8.2249E-02
730.00,8.3447E-02
