wavelength,intensity
380.00,9.5640E-04
385.00,5.5358E-04
390.00,1.5995E-03
395.00,1.7525E-03
400.00,1.9558E-03
405.00,2.2028E-03
410.00,2.7056E-03
415.00,2.0047E-03
420.00,2.9059E-03
425.00,3.2986E-03
430.00,3.2420E-03
435.00,4.4167E-03
440.00,4.5229E-03
445.00,3.2700E-03
450.00,9.2837E-03
455.00,4.8911E-03
460.00,3.2563E-03
465.00,9.6563E-03
470.00,6.5654E-03
475.00,6.7801E-03
480.00,1.8775E-03
485.00,1.7676E-03
490.00,3.1936E-03
495.00,7.1477E-03
500.00,1.9230E-02
505.00,3.0603E-03
510.00,3.0066E-03
515.00,1.7691E-02
520.00,2.8419E-03
525.00,2.8230E-03
530.00,3.2009E-03
535.00,3.5096E-03
540.00,4.0313E-03
545.00,5.9521E-03
550.00,1.7785E-02
555.00,2.0614E-02
560.00,2.4817E-02
565.00,4.4153E-02
570.00,1.4643E-01
575.00,6.9225E-02
580.00,1.2404E-01
585.00,1.5697E-01
590.00,1.1058E-02
595.00,1.8460E-01
600.00,1.4451E-01
605.00,9.7155E-02
610.00,6.7254E-02
615.00,9.5355E-02
620.00,3.9542E-02
625.00,3.2852E-02
630.00,2.7851E-02
635.00,2.3585E-02
640.00,2.0974E-02
645.00,1.7606E-02
650.00,1.6344E-02
655.00,1.6083E-02
660.00,1.3171E-02
665.00,1.2122E-02
670.00,1.4037E-02
675.00,1.2767E-02
680.00,9.1127E-03
685.00,7.9155E-03
690.00,6.8894E-03
695.00,5.7028E-03
700.00,6.6357E-03
705.00,4.7306E-03
710.00,5.2349E-03
715.00,5.0955E-03
720.00,5.3703E-03
725.00,4.6928E-03
730.00,4.3703E-03
