wavelength,intensity
380.00,1.8725E-03
385.00,2.2882E-03
390.00,2.5466E-03
395.00,2.7560E-03
400.00,3.2562E-03
405.00,3.5995E-03
410.00,3.7787E-03
415.00,4.3075E-03
420.00,4.8824E-03
425.00,5.3112E-03
430.00,5.9745E-03
435.00,6.6654E-03
440.00,7.3857E-03
445.00,7.8336E-03
450.00,8.6158E-03
455.00,9.6042E-03
460.00,1.0422E-02
465.00,1.1413E-02
470.00,1.2264E-02
475.00,1.3321E-02
480.00,1.4487E-02
485.00,1.5360E-02
490.00,1.6501E-02
495.00,1.7981E-02
500.00,1.9523E-02
505.00,2.1070E-02
510.00,2.2987E-02
515.00,2.4998E-02
520.00,2.7080E-02
525.00,2.9349E-02
530.00,3.1763E-02
535.00,3.4056E-02
540.00,3.6651E-02
545.00,3.9044E-02
550.00,4.1613E-02
555.00,4.4277E-02
560.00,4.7014E-02
565.00,4.9365E-02
570.00,5.1791E-02
575.00,5.4139E-02
580.00,5.6694E-02
585.00,5.8629E-02
590.00,6.1332E-02
595.00,6.3242E-02
600.00,6.5651E-02
605.00,6.7473E-02
610.00,6.9707E-02
615.00,7.1848E-02
620.00,7.3291E-02
625.00,7.5595E-02
630.00,7.7355E-02
635.00,7.9553E-02
640.00,8.0919E-02
645.00,8.2739E-02
650.00,8.4774E-02
655.00,8.6223E-02
660.00,8.7588E-02
665.00,8.9227E-02
670.00,9.0396E-02
675.00,9.2199E-02
680.00,9.3497E-02
685.00,9.4687E-02
690.00,9.7581E-02
695.00,9.9004E-02
700.00,1.0152E-01
705.00,1.0403E-01
710.00,1.0557E-01
715.00,1.0701E-01
720.00,1.0945E-01
725.00,1.1164E-01
730.00,1.1408E-01
