wavelength,intensity
380.00,2.5356E-03
385.00,2.9475E-03
390.00,3.3560E-03
395.00,3.5704E-03
400.00,4.1042E-03
405.00,4.7319E-03
410.00,5.1584E-03
415.00,5.5869E-03
420.00,6.1851E-03
425.00,6.7552E-03
430.00,7.4669E-03
435.00,8.3031E-03
440.00,8.9518E-03
445.00,9.6743E-03
450.00,1.0582E-02
455.00,1.1361E-02
460.00,1.2266E-02
465.00,1.3404E-02
470.00,1.4288E-02
475.00,1.5459E-02
480.00,1.6530E-02
485.00,1.7435E-02
490.00,1.8740E-02
495.00,2.0223E-02
500.00,2.1546E-02
505.00,2.3345E-02
510.00,2.5172E-02
515.00,2.7051E-02
520.00,2.9101E-02
525.00,3.1367E-02
530.00,3.3660E-02
535.00,3.5963E-02
540.00,3.8092E-02
545.00,4.0533E-02
550.00,4.2969E-02
555.00,4.5245E-02
560.00,4.7796E-02
565.00,4.9824E-02
570.00,5.2019E-02
575.00,5.3730E-02
580.00,5.6162E-02
585.00,5.8017E-02
590.00,5.9741E-02
595.00,6.1657E-02
600.00,6.3318E-02
605.00,6.5124E-02
610.00,6.6615E-02
615.00,6.8374E-02
620.00,6.9496E-02
625.00,7.1163E-02
630.00,7.2511E-02
635.00,7.3899E-02
640.00,7.5321E-02
645.00,7.6831E-02
650.00,7.8151E-02
655.00,7.9242E-02
660.00,8.0563E-02
665.00,8.1305E-02
670.00,8.2297E-02
675.00,8.3362E-02
680.00,8.4572E-02
685.00,8.5438E-02
690.00,8.6498E-02
695.00,8.8623E-02
700.00,8.9879E-02
705.00,9.1875E-02
710.00,9.2961E-02
715.00,9.4506E-02
720.00,9.6059E-02
725.00,9.7049E-02
730.00,9.8838E-02
