wavelength,intensity
380.00,2.9266E-03
385.00,3.6340E-03
390.00,4.3175E-03
395.00,4.9511E-03
400.00,5.9204E-03
405.00,6.4180E-03
410.00,7.5376E-03
415.00,8.3187E-03
420.00,8.8604E-03
425.00,9.9717E-03
430.00,1.0070E-02
435.00,1.1332E-02
440.00,1.3083E-02
445.00,1.4118E-02
450.00,1.5058E-02
455.00,1.5884E-02
460.00,1.6672E-02
465.00,1.8666E-02
470.00,1.8720E-02
475.00,2.0238E-02
480.00,2.1609E-02
485.00,2.4023E-02
490.00,2.5645E-02
495.00,2.7147E-02
500.00,2.8103E-02
505.00,2.9374E-02
510.00,2.8853E-02
515.00,2.9912E-02
520.00,3.3354E-02
525.00,3.0741E-02
530.00,3.1387E-02
535.00,3.8355E-02
540.00,4.7263E-02
545.00,5.2620E-02
550.00,5.6506E-02
555.00,5.9221E-02
560.00,6.1610E-02
565.00,6.0682E-02
570.00,3.5739E-02
575.00,2.2914E-02
580.00,2.6450E-02
585.00,1.6724E-02
590.00,2.4985E-02
595.00,3.9992E-02
600.00,5.6941E-02
605.00,7.0218E-02
610.00,7.7468E-02
615.00,8.7206E-02
620.00,9.0984E-02
625.00,9.1903E-02
630.00,9.2928E-02
635.00,9.5835E-02
640.00,9.7745E-02
645.00,9.9808E-02
650.00,1.0072E-01
655.00,1.0219E-01
660.00,1.0301E-01
665.00,1.0361E-01
670.00,1.0380E-01
675.00,1.0336E-01
680.00,1.0220E-01
685.00,1.0002E-01
690.00,1.0363E-01
695.00,1.0877E-01
700.00,1.0989E-01
705.00,1.1301E-01
710.00,1.1393E-01
715.00,1.1379E-01
720.00,1.1482E-01
725.00,1.1291E-01
730.00,1.0755E-01
