wavelength,intensity
380.00,1.6660E-03
385.00,1.8739E-03
390.00,2.5082E-03
395.00,2.2644E-03
400.00,2.8992E-03
405.00,3.4526E-03
410.00,3.7025E-03
415.00,4.0538E-03
420.00,4.6833E-03
425.00,5.1723E-03
430.00,5.4667E-03
435.00,6.5631E-03
440.00,7.3484E-03
445.00,7.6233E-03
450.00,8.5009E-03
455.00,9.4035E-03
460.00,1.0302E-02
465.00,1.1167E-02
470.00,1.1489E-02
475.00,1.3311E-02
480.00,1.4216E-02
485.00,1.5202E-02
490.00,1.6466E-02
495.00,1.7485E-02
500.00,1.9086E-02
505.00,2.0943E-02
510.00,2.2434E-02
515.00,2.4552E-02
520.00,2.6658E-02
525.00,2.8820E-02
530.00,3.1443E-02
535.00,3.3463E-02
540.00,3.6193E-02
545.00,3.8712E-02
550.00,4.1103E-02
555.00,4.3790E-02
560.00,4.6949E-02
565.00,4.9434E-02
570.00,5.1375E-02
575.00,5.4066E-02
580.00,5.6439E-02
585.00,5.8963E-02
590.00,6.1781E-02
595.00,6.3636E-02
600.00,6.5841E-02
605.00,6.7888E-02
610.00,7.0608E-02
615.00,7.2600E-02
620.00,7.4426E-02
625.00,7.6519E-02
630.00,7.8472E-02
635.00,8.0692E-02
640.00,8.2579E-02
645.00,8.4980E-02
650.00,8.7012E-02
655.00,8.8907E-02
660.00,9.0555E-02
665.00,9.2445E-02
670.00,9.3072E-02
675.00,9.5665E-02
680.00,9.6933E-02
685.00,9.8809E-02
690.00,1.0124E-01
695.00,1.0408E-01
700.00,1.0522E-01
705.00,1.0794E-01
710.00,1.0993E-01
715.00,1.1367E-01
720.00,1.1479E-01
725.00,1.1597E-01
730.00,1.2041E-01
