wavelength,intensity
380.00,3.7959E-03
385.00,4.3300E-03
390.00,4.6539E-03
395.00,4.9692E-03
400.00,5.6107E-03
405.00,6.1924E-03
410.00,6.8472E-03
415.00,7.4047E-03
420.00,8.1851E-03
425.00,8.8401E-03
430.00,9.4579E-03
435.00,1.0337E-02
440.00,1.1206E-02
445.00,1.1925E-02
450.00,1.2869E-02
455.00,1.3554E-02
460.00,1.4720E-02
465.00,1.5793E-02
470.00,1.6704E-02
475.00,1.7682E-02
480.00,1.9092E-02
485.00,1.9834E-02
490.00,2.1257E-02
495.00,2.2549E-02
500.00,2.3803E-02
505.00,2.5518E-02
510.00,2.7385E-02
515.00,2.9245E-02
520.00,3.1278E-02
525.00,3.3281E-02
530.00,3.5432E-02
535.00,3.7599E-02
540.00,3.9549E-02
545.00,4.1866E-02
550.00,4.3923E-02
555.00,4.6153E-02
560.00,4.8172E-02
565.00,4.9949E-02
570.00,5.1936E-02
575.00,5.3559E-02
580.00,5.5418E-02
585.00,5.6778E-02
590.00,5.8535E-02
595.00,5.9968E-02
600.00,6.1402E-02
605.00,6.2689E-02
610.00,6.3891E-02
615.00,6.5228E-02
620.00,6.6071E-02
625.00,6.7331E-02
630.00,6.8300E-02
635.00,6.9105E-02
640.00,7.0181E-02
645.00,7.1153E-02
650.00,7.2107E-02
655.00,7.2747E-02
660.00,7.3476E-02
665.00,7.4177E-02
670.00,7.5069E-02
675.00,7.5500E-02
680.00,7.6367E-02
685.00,7.6911E-02
690.00,7.8192E-02
695.00,7.9375E-02
700.00,8.0392E-02
705.00,8.1817E-02
710.00,8.2958E-02
715.00,8.4400E-02
720.00,8.5504E-02
725.00,8.6711E-02
730.00,8.8336E-02
