wavelength,intensity
380.00,2.2996E-03
385.00,2.7544E-03
390.00,3.0747E-03
395.00,3.4747E-03
400.00,4.0572E-03
405.00,4.1578E-03
410.00,4.8976E-03
415.00,5.4799E-03
420.00,5.9115E-03
425.00,6.6410E-03
430.00,7.1862E-03
435.00,7.8134E-03
440.00,8.6541E-03
445.00,9.4404E-03
450.00,1.0183E-02
455.00,1.1040E-02
460.00,1.1784E-02
465.00,1.2913E-02
470.00,1.3834E-02
475.00,1.4925E-02
480.00,1.5979E-02
485.00,1.7039E-02
490.00,1.8184E-02
495.00,1.9512E-02
500.00,2.1142E-02
505.00,2.2749E-02
510.00,2.4591E-02
515.00,2.6735E-02
520.00,2.8772E-02
525.00,3.1032E-02
530.00,3.2970E-02
535.00,3.5397E-02
540.00,3.7741E-02
545.00,4.0110E-02
550.00,4.2764E-02
555.00,4.5121E-02
560.00,4.7594E-02
565.00,4.9770E-02
570.00,5.1876E-02
575.00,5.4086E-02
580.00,5.6260E-02
585.00,5.8286E-02
590.00,6.0391E-02
595.00,6.2426E-02
600.00,6.4227E-02
605.00,6.5781E-02
610.00,6.7307E-02
615.00,6.9242E-02
620.00,7.0213E-02
625.00,7.2016E-02
630.00,7.3159E-02
635.00,7.4749E-02
640.00,7.6158E-02
645.00,7.7416E-02
650.00,7.8705E-02
655.00,8.0058E-02
660.00,8.1294E-02
665.00,8.1516E-02
670.00,8.2723E-02
675.00,8.3587E-02
680.00,8.4495E-02
685.00,8.5430E-02
690.00,8.6756E-02
695.00,8.7914E-02
700.00,8.8818E-02
705.00,9.0334E-02
710.00,9.1295E-02
715.00,9.2374E-02
720.00,9.3372E-02
725.00,9.4348E-02
730.00,9.6021E-02
