wavelength,intensity
380.00,0.0000E+00
385.00,0.0000E+00
390.00,0.0000E+00
395.00,0.0000E+00
400.00,0.0000E+00
405.00,0.0000E+00
410.00,0.0000E+00
415.00,3.9138E-04
420.00,1.1710E-03
425.00,2.4363E-03
430.00,4.1353E-03
435.00,6.4246E-03
440.00,1.0067E-02
445.00,1.5634E-02
450.00,2.0196E-02
455.00,1.8970E-02
460.00,1.5291E-02
465.00,1.2647E-02
470.00,1.0974E-02
475.00,9.6906E-03
480.00,9.2031E-03
485.00,9.4519E-03
490.00,1.0506E-02
495.00,1.2278E-02
500.00,1.4742E-02
505.00,1.7487E-02
510.00,2.0226E-02
515.00,2.2978E-02
520.00,2.5744E-02
525.00,2.8511E-02
530.00,3.1168E-02
535.00,3.3955E-02
540.00,3.6637E-02
545.00,3.9427E-02
550.00,4.2462E-02
555.00,4.5830E-02
560.00,4.9352E-02
565.00,5.2802E-02
570.00,5.6448E-02
575.00,6.0201E-02
580.00,6.3697E-02
585.00,6.7131E-02
590.00,7.0057E-02
595.00,7.2169E-02
600.00,7.3786E-02
605.00,7.4209E-02
610.00,7.3913E-02
615.00,7.2556E-02
620.00,6.9863E-02
625.00,6.6526E-02
630.00,6.2579E-02
635.00,5.8225E-02
640.00,5.3775E-02
645.00,4.8960E-02
650.00,4.4227E-02
655.00,3.9250E-02
660.00,3.4947E-02
665.00,3.0718E-02
670.00,2.6742E-02
675.00,2.3364E-02
680.00,2.0236E-02
685.00,1.7436E-02
690.00,1.5059E-02
695.00,1.3135E-02
700.00,1.1320E-02
705.00,9.5649E-03
710.00,8.1798E-03
715.00,6.9864E-03
720.00,6.0934E-03
725.00,4.9520E-03
730.00,4.3500E-03
