wavelength,intensity
380.00,0.0000E+00
385.00,0.0000E+00
390.00,0.0000E+00
395.00,0.0000E+00
400.00,0.0000E+00
405.00,0.0000E+00
410.00,4.6173E-10
415.00,4.7719E-04
420.00,1.4070E-03
425.00,3.2454E-03
430.00,5.9667E-03
435.00,9.9609E-03
440.00,1.6248E-02
445.00,2.2439E-02
450.00,2.1104E-02
455.00,1.4954E-02
460.00,1.1237E-02
465.00,9.0570E-03
470.00,7.3862E-03
475.00,6.7584E-03
480.00,7.3225E-03
485.00,8.5552E-03
490.00,1.0357E-02
495.00,1.2796E-02
500.00,1.5519E-02
505.00,1.8020E-02
510.00,2.0530E-02
515.00,2.3104E-02
520.00,2.5504E-02
525.00,2.8283E-02
530.00,3.0929E-02
535.00,3.4061E-02
540.00,3.6999E-02
545.00,4.0422E-02
550.00,4.3797E-02
555.00,4.7471E-02
560.00,5.0940E-02
565.00,5.4142E-02
570.00,5.7053E-02
575.00,5.9899E-02
580.00,6.2887E-02
585.00,6.5640E-02
590.00,6.7900E-02
595.00,6.9742E-02
600.00,7.0989E-02
605.00,7.1301E-02
610.00,7.1601E-02
615.00,7.0705E-02
620.00,6.9179E-02
625.00,6.6723E-02
630.00,6.4175E-02
635.00,6.0859E-02
640.00,5.6748E-02
645.00,5.3183E-02
650.00,4.8833E-02
655.00,4.4294E-02
660.00,4.0146E-02
665.00,3.5812E-02
670.00,3.1817E-02
675.00,2.8040E-02
680.00,2.4927E-02
685.00,2.1843E-02
690.00,1.9212E-02
695.00,1.6838E-02
700.00,1.4765E-02
705.00,1.2515E-02
710.00,1.0672E-02
715.00,9.2432E-03
720.00,8.3356E-03
725.00,6.6859E-03
730.00,5.9652E-03
