wavelength,intensity
380.00,3.0198E-04
385.00,3.4736E-04
390.00,3.2238E-04
395.00,3.5316E-04
400.00,4.6151E-04
405.00,5.8937E-04
410.00,9.0384E-04
415.00,1.5695E-03
420.00,2.8061E-03
425.00,5.2145E-03
430.00,9.3251E-03
435.00,1.6032E-02
440.00,2.7572E-02
445.00,4.7688E-02
450.00,6.6090E-02
455.00,5.9954E-02
460.00,4.2192E-02
465.00,3.2755E-02
470.00,2.5620E-02
475.00,1.9742E-02
480.00,1.7568E-02
485.00,1.7510E-02
490.00,1.8604E-02
495.00,2.1288E-02
500.00,2.4968E-02
505.00,2.8681E-02
510.00,3.1987E-02
515.00,3.5045E-02
520.00,3.7439E-02
525.00,3.9814E-02
530.00,4.1909E-02
535.00,4.3942E-02
540.00,4.5848E-02
545.00,4.7468E-02
550.00,4.8983E-02
555.00,5.0691E-02
560.00,5.2197E-02
565.00,5.3807E-02
570.00,5.4924E-02
575.00,5.6088E-02
580.00,5.6998E-02
585.00,5.7321E-02
590.00,5.7808E-02
595.00,5.7734E-02
600.00,5.7255E-02
605.00,5.6298E-02
610.00,5.4773E-02
615.00,5.2779E-02
620.00,5.0402E-02
625.00,4.7494E-02
630.00,4.4472E-02
635.00,4.1489E-02
640.00,3.8184E-02
645.00,3.4897E-02
650.00,3.1783E-02
655.00,2.8646E-02
660.00,2.5562E-02
665.00,2.2722E-02
670.00,2.0202E-02
675.00,1.7655E-02
680.00,1.5486E-02
685.00,1.3299E-02
690.00,1.1527E-02
695.00,9.9772E-03
700.00,8.6805E-03
705.00,7.4805E-03
710.00,6.5087E-03
715.00,5.5082E-03
720.00,4.7607E-03
725.00,4.0719E-03
730.00,3.5583E-03
