wavelength,intensity
380.00,3.4820E-04
385.00,3.7881E-04
390.00,4.8542E-04
395.00,6.1112E-04
400.00,9.5787E-04
405.00,1.5548E-03
410.00,3.2735E-03
415.00,7.0035E-03
420.00,1.5225E-02
425.00,2.9508E-02
430.00,4.9125E-02
435.00,7.1721E-02
440.00,9.5613E-02
445.00,1.0223E-01
450.00,8.0537E-02
455.00,5.1652E-02
460.00,3.3399E-02
465.00,2.3321E-02
470.00,1.6569E-02
475.00,1.2900E-02
480.00,1.1118E-02
485.00,1.0529E-02
490.00,1.1501E-02
495.00,1.4426E-02
500.00,1.8863E-02
505.00,2.4735E-02
510.00,3.1015E-02
515.00,3.7310E-02
520.00,4.2786E-02
525.00,4.7462E-02
530.00,5.1048E-02
535.00,5.3844E-02
540.00,5.5725E-02
545.00,5.7120E-02
550.00,5.8015E-02
555.00,5.8705E-02
560.00,5.8970E-02
565.00,5.8444E-02
570.00,5.7805E-02
575.00,5.6645E-02
580.00,5.5127E-02
585.00,5.3211E-02
590.00,5.0993E-02
595.00,4.8529E-02
600.00,4.5840E-02
605.00,4.2694E-02
610.00,3.9827E-02
615.00,3.6586E-02
620.00,3.3352E-02
625.00,3.0505E-02
630.00,2.7675E-02
635.00,2.5101E-02
640.00,2.2488E-02
645.00,2.0115E-02
650.00,1.7966E-02
655.00,1.6007E-02
660.00,1.4146E-02
665.00,1.2343E-02
670.00,1.0895E-02
675.00,9.5950E-03
680.00,8.4998E-03
685.00,7.4767E-03
690.00,6.5287E-03
695.00,5.8183E-03
700.00,5.0074E-03
705.00,4.4785E-03
710.00,3.9663E-03
715.00,3.3716E-03
720.00,3.0060E-03
725.00,2.6415E-03
730.00,2.3643E-03
