wavelength,intensity
380.00,0.0000E+00
385.00,8.9501E-04
390.00,0.0000E+00
395.00,4.1766E-04
400.00,2.4910E-04
405.00,6.6250E-05
410.00,5.8490E-04
415.00,1.8016E-04
420.00,6.8092E-04
425.00,8.5599E-04
430.00,1.3655E-03
435.00,2.6457E-03
440.00,4.2358E-03
445.00,6.6226E-03
450.00,7.6391E-03
455.00,5.1604E-03
460.00,4.6082E-03
465.00,3.5518E-03
470.00,3.1497E-03
475.00,2.9203E-03
480.00,2.5188E-03
485.00,1.8577E-03
490.00,1.2583E-03
495.00,8.6756E-04
500.00,9.5944E-04
505.00,1.0272E-03
510.00,8.1100E-04
515.00,1.4790E-03
520.00,2.5129E-03
525.00,4.2275E-03
530.00,7.8024E-03
535.00,1.3096E-02
540.00,2.0644E-02
545.00,3.0532E-02
550.00,4.1447E-02
555.00,5.2795E-02
560.00,6.4578E-02
565.00,7.5045E-02
570.00,8.4389E-02
575.00,9.0973E-02
580.00,9.4122E-02
585.00,9.4924E-02
590.00,9.3136E-02
595.00,8.8729E-02
600.00,8.4185E-02
605.00,7.8408E-02
610.00,7.3320E-02
615.00,6.7824E-02
620.00,6.0973E-02
625.00,5.4083E-02
630.00,4.4665E-02
635.00,3.5104E-02
640.00,2.5387E-02
645.00,1.7366E-02
650.00,1.2695E-02
655.00,8.2572E-03
660.00,5.5317E-03
665.00,4.8057E-03
670.00,3.3735E-03
675.00,2.7609E-03
680.00,1.4578E-03
685.00,9.0172E-04
690.00,1.3987E-03
695.00,1.4350E-03
700.00,1.3019E-03
705.00,8.2543E-04
710.00,1.0256E-04
715.00,4.1179E-04
720.00,8.9234E-04
725.00,7.4520E-04
730.00,5.8956E-04
