wavelength,intensity
380.00,2.0374E-04
385.00,2.3790E-04
390.00,2.8617E-04
395.00,3.0742E-04
400.00,4.0640E-04
405.00,6.0738E-04
410.00,1.0743E-03
415.00,2.1803E-03
420.00,4.4654E-03
425.00,8.8062E-03
430.00,1.6894E-02
435.00,2.8563E-02
440.00,4.8021E-02
445.00,7.6464E-02
450.00,8.4615E-02
455.00,5.8491E-02
460.00,3.4383E-02
465.00,2.3070E-02
470.00,1.5123E-02
475.00,9.8408E-03
480.00,7.5151E-03
485.00,6.6310E-03
490.00,6.8958E-03
495.00,8.8973E-03
500.00,1.3167E-02
505.00,1.9218E-02
510.00,2.6734E-02
515.00,3.4694E-02
520.00,4.1487E-02
525.00,4.6947E-02
530.00,5.0672E-02
535.00,5.3421E-02
540.00,5.5299E-02
545.00,5.6371E-02
550.00,5.7412E-02
555.00,5.8298E-02
560.00,5.9098E-02
565.00,5.9279E-02
570.00,5.9031E-02
575.00,5.8553E-02
580.00,5.7370E-02
585.00,5.5785E-02
590.00,5.3663E-02
595.00,5.1226E-02
600.00,4.8555E-02
605.00,4.5556E-02
610.00,4.2424E-02
615.00,3.9226E-02
620.00,3.5925E-02
625.00,3.2802E-02
630.00,3.0038E-02
635.00,2.7050E-02
640.00,2.4288E-02
645.00,2.1738E-02
650.00,1.9470E-02
655.00,1.7272E-02
660.00,1.5248E-02
665.00,1.3361E-02
670.00,1.1826E-02
675.00,1.0381E-02
680.00,9.1822E-03
685.00,7.9598E-03
690.00,6.9292E-03
695.00,6.0583E-03
700.00,5.3063E-03
705.00,4.7158E-03
710.00,4.0083E-03
715.00,3.6246E-03
720.00,3.0823E-03
725.00,2.6816E-03
730.00,2.3687E-03
