wavelength,intensity
380.00,0.0000E+00
385.00,0.0000E+00
390.00,0.0000E+00
395.00,0.0000E+00
400.00,0.0000E+00
405.00,1.6274E-06
410.00,0.0000E+00
415.00,6.8768E-04
420.00,3.8125E-03
425.00,7.9497E-03
430.00,1.4317E-02
435.00,2.1043E-02
440.00,2.7872E-02
445.00,2.7459E-02
450.00,1.6939E-02
455.00,8.6897E-03
460.00,5.1740E-03
465.00,2.8997E-03
470.00,2.4256E-03
475.00,1.8583E-03
480.00,2.1591E-03
485.00,2.1181E-03
490.00,3.5132E-03
495.00,6.1977E-03
500.00,1.0121E-02
505.00,1.5017E-02
510.00,2.0995E-02
515.00,2.6683E-02
520.00,3.1150E-02
525.00,3.5061E-02
530.00,3.8297E-02
535.00,3.9662E-02
540.00,4.0930E-02
545.00,4.1771E-02
550.00,4.1690E-02
555.00,4.2445E-02
560.00,4.2567E-02
565.00,4.2872E-02
570.00,4.2116E-02
575.00,4.1588E-02
580.00,4.2061E-02
585.00,4.3296E-02
590.00,4.6279E-02
595.00,5.2387E-02
600.00,6.4675E-02
605.00,8.4714E-02
610.00,1.1566E-01
615.00,1.6113E-01
620.00,1.9329E-01
625.00,1.2923E-01
630.00,6.1456E-02
635.00,3.3623E-02
640.00,2.1729E-02
645.00,1.5038E-02
650.00,1.2611E-02
655.00,1.0174E-02
660.00,8.0088E-03
665.00,6.2874E-03
670.00,6.1566E-03
675.00,4.4019E-03
680.00,3.6517E-03
685.00,2.0653E-03
690.00,2.2515E-03
695.00,1.2680E-03
700.00,1.2062E-03
705.00,7.2549E-04
710.00,6.3957E-04
715.00,0.0000E+00
720.00,0.0000E+00
725.00,0.0000E+00
730.00,0.0000E+00
