wavelength,intensity
380.00,0.0000E+00
385.00,0.0000E+00
390.00,0.0000E+00
395.00,0.0000E+00
400.00,2.3026E-05
405.00,1.2656E-04
410.00,3.2593E-04
415.00,8.0122E-04
420.00,1.7634E-03
425.00,3.4127E-03
430.00,5.9811E-03
435.00,9.0650E-03
440.00,1.2994E-02
445.00,1.7392E-02
450.00,1.9618E-02
455.00,1.6769E-02
460.00,1.1869E-02
465.00,9.0101E-03
470.00,7.4678E-03
475.00,6.3830E-03
480.00,5.9825E-03
485.00,6.0948E-03
490.00,6.8771E-03
495.00,8.6535E-03
500.00,1.1546E-02
505.00,1.5305E-02
510.00,1.9611E-02
515.00,2.3810E-02
520.00,2.7727E-02
525.00,3.1279E-02
530.00,3.4206E-02
535.00,3.6654E-02
540.00,3.9127E-02
545.00,4.1363E-02
550.00,4.3767E-02
555.00,4.6692E-02
560.00,4.9846E-02
565.00,5.2996E-02
570.00,5.6059E-02
575.00,5.9376E-02
580.00,6.2559E-02
585.00,6.5445E-02
590.00,6.7911E-02
595.00,6.9818E-02
600.00,7.0903E-02
605.00,7.1653E-02
610.00,7.1333E-02
615.00,7.0525E-02
620.00,6.8298E-02
625.00,6.6062E-02
630.00,6.2974E-02
635.00,5.9452E-02
640.00,5.5705E-02
645.00,5.1500E-02
650.00,4.7094E-02
655.00,4.3037E-02
660.00,3.8741E-02
665.00,3.4710E-02
670.00,3.1085E-02
675.00,2.7540E-02
680.00,2.4191E-02
685.00,2.1360E-02
690.00,1.8685E-02
695.00,1.6370E-02
700.00,1.4139E-02
705.00,1.2273E-02
710.00,1.0635E-02
715.00,9.2399E-03
720.00,7.9113E-03
725.00,6.8184E-03
730.00,5.8535E-03
