wavelength,intensity
380.00,2.1514E-04
385.00,1.6750E-04
390.00,1.9001E-04
395.00,1.5846E-04
400.00,2.2959E-04
405.00,2.5822E-04
410.00,3.8358E-04
415.00,6.6499E-04
420.00,1.3022E-03
425.00,2.3257E-03
430.00,4.1607E-03
435.00,7.1299E-03
440.00,1.1763E-02
445.00,1.7959E-02
450.00,2.2742E-02
455.00,2.2190E-02
460.00,1.6971E-02
465.00,1.3323E-02
470.00,1.1580E-02
475.00,9.9116E-03
480.00,9.4370E-03
485.00,1.0048E-02
490.00,1.1527E-02
495.00,1.3367E-02
500.00,1.5724E-02
505.00,1.8153E-02
510.00,2.0564E-02
515.00,2.2928E-02
520.00,2.5392E-02
525.00,2.7905E-02
530.00,3.0753E-02
535.00,3.3498E-02
540.00,3.6618E-02
545.00,4.0017E-02
550.00,4.3394E-02
555.00,4.6828E-02
560.00,5.0509E-02
565.00,5.3614E-02
570.00,5.6840E-02
575.00,6.0051E-02
580.00,6.2998E-02
585.00,6.5785E-02
590.00,6.8149E-02
595.00,7.0265E-02
600.00,7.1335E-02
605.00,7.1970E-02
610.00,7.2127E-02
615.00,7.1208E-02
620.00,6.9316E-02
625.00,6.7019E-02
630.00,6.3857E-02
635.00,6.0383E-02
640.00,5.6788E-02
645.00,5.2612E-02
650.00,4.8332E-02
655.00,4.3859E-02
660.00,3.9664E-02
665.00,3.5443E-02
670.00,3.1552E-02
675.00,2.7680E-02
680.00,2.4443E-02
685.00,2.1287E-02
690.00,1.8835E-02
695.00,1.6337E-02
700.00,1.4123E-02
705.00,1.2273E-02
710.00,1.0582E-02
715.00,9.1190E-03
720.00,7.9219E-03
725.00,6.8415E-03
730.00,5.9195E-03
