wavelength,intensity
380.00,0.0000E+00
385.00,2.8884E-04
390.00,3.8907E-06
395.00,2.0941E-04
400.00,1.8541E-04
405.00,2.2868E-04
410.00,6.6004E-04
415.00,1.1278E-03
420.00,1.7307E-03
425.00,3.3308E-03
430.00,5.7872E-03
435.00,9.3851E-03
440.00,1.4853E-02
445.00,2.3035E-02
450.00,3.0640E-02
455.00,2.9295E-02
460.00,2.1124E-02
465.00,1.6724E-02
470.00,1.3478E-02
475.00,1.1210E-02
480.00,9.9600E-03
485.00,1.0257E-02
490.00,1.1512E-02
495.00,1.3717E-02
500.00,1.6541E-02
505.00,1.9529E-02
510.00,2.2332E-02
515.00,2.5376E-02
520.00,2.7787E-02
525.00,3.0191E-02
530.00,3.2171E-02
535.00,3.4496E-02
540.00,3.6947E-02
545.00,3.9719E-02
550.00,4.2511E-02
555.00,4.5949E-02
560.00,4.9596E-02
565.00,5.2872E-02
570.00,5.6310E-02
575.00,5.9461E-02
580.00,6.2770E-02
585.00,6.5271E-02
590.00,6.7806E-02
595.00,6.9569E-02
600.00,7.0331E-02
605.00,7.0603E-02
610.00,7.0192E-02
615.00,6.9072E-02
620.00,6.7374E-02
625.00,6.4939E-02
630.00,6.2374E-02
635.00,5.9583E-02
640.00,5.5831E-02
645.00,5.2032E-02
650.00,4.8457E-02
655.00,4.3990E-02
660.00,4.0200E-02
665.00,3.6225E-02
670.00,3.2578E-02
675.00,2.9062E-02
680.00,2.5587E-02
685.00,2.2908E-02
690.00,2.0117E-02
695.00,1.7641E-02
700.00,1.5737E-02
705.00,1.3600E-02
710.00,1.1604E-02
715.00,1.0247E-02
720.00,8.9333E-03
725.00,7.7327E-03
730.00,6.6867E-03
