wavelength,intensity
380.00,7.1967E-05
385.00,1.5887E-04
390.00,1.6862E-04
395.00,1.5816E-04
400.00,1.3897E-04
405.00,2.7122E-04
410.00,7.1196E-04
415.00,1.5865E-03
420.00,3.3872E-03
425.00,6.3756E-03
430.00,1.0623E-02
435.00,1.4176E-02
440.00,1.8221E-02
445.00,2.0809E-02
450.00,1.8065E-02
455.00,1.3009E-02
460.00,1.0305E-02
465.00,9.0574E-03
470.00,8.0017E-03
475.00,7.9789E-03
480.00,9.2214E-03
485.00,1.0910E-02
490.00,1.3342E-02
495.00,1.6040E-02
500.00,1.8856E-02
505.00,2.1245E-02
510.00,2.3349E-02
515.00,2.5524E-02
520.00,2.7622E-02
525.00,2.9847E-02
530.00,3.2249E-02
535.00,3.5022E-02
540.00,3.7854E-02
545.00,4.0861E-02
550.00,4.4319E-02
555.00,4.7290E-02
560.00,5.0959E-02
565.00,5.3665E-02
570.00,5.7023E-02
575.00,5.9892E-02
580.00,6.2936E-02
585.00,6.5391E-02
590.00,6.7619E-02
595.00,6.9120E-02
600.00,7.0091E-02
605.00,7.0086E-02
610.00,6.9232E-02
615.00,6.7582E-02
620.00,6.5201E-02
625.00,6.2242E-02
630.00,5.9014E-02
635.00,5.5323E-02
640.00,5.1464E-02
645.00,4.7498E-02
650.00,4.3230E-02
655.00,3.9154E-02
660.00,3.5618E-02
665.00,3.1944E-02
670.00,2.8587E-02
675.00,2.5748E-02
680.00,2.2784E-02
685.00,2.0263E-02
690.00,1.8190E-02
695.00,1.6142E-02
700.00,1.4170E-02
705.00,1.2675E-02
710.00,1.1324E-02
715.00,9.9457E-03
720.00,8.8618E-03
725.00,7.7506E-03
730.00,6.8975E-03
