wavelength,intensity
380.00,1.4709E-04
385.00,2.1196E-04
390.00,1.8411E-04
395.00,2.3129E-04
400.00,3.6883E-04
405.00,3.6394E-04
410.00,6.5496E-04
415.00,1.2162E-03
420.00,2.2823E-03
425.00,4.3365E-03
430.00,7.4695E-03
435.00,1.1757E-02
440.00,1.7980E-02
445.00,2.4938E-02
450.00,2.5802E-02
455.00,2.0918E-02
460.00,1.6426E-02
465.00,1.3515E-02
470.00,1.1187E-02
475.00,9.8003E-03
480.00,9.2141E-03
485.00,9.4104E-03
490.00,1.0504E-02
495.00,1.2459E-02
500.00,1.5241E-02
505.00,1.8752E-02
510.00,2.2466E-02
515.00,2.6268E-02
520.00,3.0013E-02
525.00,3.3379E-02
530.00,3.6415E-02
535.00,3.9097E-02
540.00,4.1712E-02
545.00,4.4121E-02
550.00,4.6468E-02
555.00,4.8820E-02
560.00,5.1426E-02
565.00,5.3436E-02
570.00,5.5481E-02
575.00,5.7560E-02
580.00,5.9648E-02
585.00,6.1494E-02
590.00,6.3253E-02
595.00,6.4636E-02
600.00,6.5648E-02
605.00,6.6171E-02
610.00,6.6192E-02
615.00,6.5652E-02
620.00,6.4282E-02
625.00,6.2293E-02
630.00,6.0102E-02
635.00,5.7664E-02
640.00,5.4318E-02
645.00,5.0877E-02
650.00,4.7242E-02
655.00,4.3399E-02
660.00,3.9677E-02
665.00,3.5774E-02
670.00,3.2050E-02
675.00,2.8629E-02
680.00,2.5463E-02
685.00,2.2616E-02
690.00,1.9960E-02
695.00,1.7625E-02
700.00,1.5258E-02
705.00,1.3441E-02
710.00,1.1762E-02
715.00,1.0210E-02
720.00,8.7732E-03
725.00,7.6333E-03
730.00,6.6357E-03
