wavelength,intensity
380.00,0.0000E+00
385.00,0.0000E+00
390.00,0.0000E+00
395.00,0.0000E+00
400.00,0.0000E+00
405.00,0.0000E+00
410.00,0.0000E+00
415.00,0.0000E+00
420.00,9.2720E-04
425.00,2.3697E-03
430.00,4.4632E-03
435.00,6.5236E-03
440.00,1.1026E-02
445.00,1.6085E-02
450.00,1.7847E-02
455.00,1.4566E-02
460.00,1.1696E-02
465.00,1.0252E-02
470.00,9.0068E-03
475.00,8.1965E-03
480.00,8.9541E-03
485.00,1.0061E-02
490.00,1.1486E-02
495.00,1.3596E-02
500.00,1.6138E-02
505.00,1.8332E-02
510.00,2.0927E-02
515.00,2.3255E-02
520.00,2.5478E-02
525.00,2.7356E-02
530.00,2.9456E-02
535.00,3.2108E-02
540.00,3.4834E-02
545.00,3.7804E-02
550.00,4.0489E-02
555.00,4.4171E-02
560.00,4.7676E-02
565.00,5.2023E-02
570.00,5.5446E-02
575.00,6.0006E-02
580.00,6.4684E-02
585.00,6.8451E-02
590.00,7.2037E-02
595.00,7.4831E-02
600.00,7.6518E-02
605.00,7.7608E-02
610.00,7.7111E-02
615.00,7.5093E-02
620.00,7.2138E-02
625.00,6.8603E-02
630.00,6.4239E-02
635.00,5.9258E-02
640.00,5.4453E-02
645.00,4.9297E-02
650.00,4.4110E-02
655.00,3.8984E-02
660.00,3.4701E-02
665.00,3.0225E-02
670.00,2.6198E-02
675.00,2.2948E-02
680.00,1.9060E-02
685.00,1.6810E-02
690.00,1.3813E-02
695.00,1.1945E-02
700.00,9.5937E-03
705.00,8.0455E-03
710.00,6.6870E-03
715.00,5.5878E-03
720.00,4.2644E-03
725.00,3.5383E-03
730.00,2.5388E-03
