wavelength,intensity
380.00,0.0000E+00
385.00,1.1064E-04
390.00,2.9053E-04
395.00,0.0000E+00
400.00,6.5839E-04
405.00,0.0000E+00
410.00,3.3577E-04
415.00,8.5019E-04
420.00,6.8857E-04
425.00,1.1102E-03
430.00,2.0689E-03
435.00,4.2073E-03
440.00,7.3364E-03
445.00,1.2233E-02
450.00,1.6370E-02
455.00,1.6674E-02
460.00,1.2867E-02
465.00,1.1391E-02
470.00,9.9125E-03
475.00,8.8058E-03
480.00,8.5899E-03
485.00,9.2188E-03
490.00,1.0020E-02
495.00,1.1236E-02
500.00,1.3209E-02
505.00,1.5147E-02
510.00,1.6995E-02
515.00,1.9243E-02
520.00,2.1650E-02
525.00,2.4244E-02
530.00,2.7215E-02
535.00,3.0691E-02
540.00,3.4412E-02
545.00,3.8378E-02
550.00,4.3120E-02
555.00,4.7038E-02
560.00,5.1666E-02
565.00,5.5202E-02
570.00,5.8920E-02
575.00,6.2262E-02
580.00,6.5721E-02
585.00,6.8210E-02
590.00,7.0772E-02
595.00,7.2505E-02
600.00,7.3991E-02
605.00,7.4058E-02
610.00,7.4291E-02
615.00,7.3140E-02
620.00,7.1275E-02
625.00,6.8796E-02
630.00,6.5465E-02
635.00,6.2874E-02
640.00,5.9382E-02
645.00,5.5246E-02
650.00,5.1769E-02
655.00,4.7197E-02
660.00,4.3297E-02
665.00,3.9084E-02
670.00,3.5524E-02
675.00,3.2094E-02
680.00,2.8937E-02
685.00,2.5809E-02
690.00,2.3187E-02
695.00,2.0860E-02
700.00,1.8588E-02
705.00,1.6333E-02
710.00,1.4378E-02
715.00,1.2589E-02
720.00,1.1211E-02
725.00,1.0071E-02
730.00,8.6005E-03
