wavelength,intensity
380.00,2.1008E-04
385.00,2.9049E-04
390.00,0.0000E+00
395.00,3.7933E-04
400.00,5.5345E-04
405.00,5.6937E-04
410.00,2.0275E-03
415.00,2.3236E-03
420.00,6.7320E-03
425.00,1.3311E-02
430.00,2.5487E-02
435.00,4.2077E-02
440.00,7.2020E-02
445.00,1.0380E-01
450.00,9.4363E-02
455.00,5.9595E-02
460.00,3.6765E-02
465.00,2.6588E-02
470.00,1.8087E-02
475.00,1.3386E-02
480.00,1.1431E-02
485.00,1.0726E-02
490.00,1.2348E-02
495.00,1.5955E-02
500.00,2.0859E-02
505.00,2.7476E-02
510.00,3.4140E-02
515.00,4.1322E-02
520.00,4.6133E-02
525.00,5.0808E-02
530.00,5.3704E-02
535.00,5.6292E-02
540.00,5.7477E-02
545.00,5.7904E-02
550.00,5.8315E-02
555.00,5.7914E-02
560.00,5.8796E-02
565.00,5.7939E-02
570.00,5.6912E-02
575.00,5.5534E-02
580.00,5.3798E-02
585.00,5.1924E-02
590.00,4.9418E-02
595.00,4.6838E-02
600.00,4.4029E-02
605.00,4.0836E-02
610.00,3.7543E-02
615.00,3.3874E-02
620.00,3.0906E-02
625.00,2.7798E-02
630.00,2.4820E-02
635.00,2.2216E-02
640.00,2.0057E-02
645.00,1.7123E-02
650.00,1.5395E-02
655.00,1.2974E-02
660.00,1.2250E-02
665.00,1.0084E-02
670.00,8.8799E-03
675.00,7.8233E-03
680.00,6.8738E-03
685.00,6.0353E-03
690.00,4.2367E-03
695.00,4.8961E-03
700.00,4.4797E-03
705.00,3.2548E-03
710.00,3.2988E-03
715.00,1.6314E-03
720.00,2.9200E-03
725.00,1.1581E-03
730.00,1.7864E-03
