wavelength,intensity
380.00,6.2621E-03
385.00,6.1407E-03
390.00,6.0370E-03
395.00,5.9550E-03
400.00,5.9727E-03
405.00,6.0116E-03
410.00,5.9907E-03
415.00,6.1483E-03
420.00,6.7405E-03
425.00,7.7967E-03
430.00,9.4207E-03
435.00,1.1751E-02
440.00,1.4995E-02
445.00,2.0144E-02
450.00,2.8045E-02
455.00,3.4438E-02
460.00,3.2472E-02
465.00,2.5374E-02
470.00,2.0091E-02
475.00,1.6543E-02
480.00,1.3412E-02
485.00,1.1328E-02
490.00,1.0733E-02
495.00,1.1122E-02
500.00,1.2808E-02
505.00,1.5514E-02
510.00,1.9125E-02
515.00,2.3005E-02
520.00,2.7000E-02
525.00,3.0841E-02
530.00,3.4268E-02
535.00,3.7567E-02
540.00,4.0474E-02
545.00,4.3353E-02
550.00,4.6204E-02
555.00,4.9027E-02
560.00,5.2008E-02
565.00,5.4573E-02
570.00,5.6915E-02
575.00,5.9109E-02
580.00,6.1257E-02
585.00,6.3008E-02
590.00,6.4608E-02
595.00,6.5589E-02
600.00,6.6233E-02
605.00,6.6170E-02
610.00,6.6109E-02
615.00,6.5317E-02
620.00,6.3691E-02
625.00,6.2215E-02
630.00,6.0274E-02
635.00,5.7517E-02
640.00,5.4863E-02
645.00,5.2145E-02
650.00,4.9074E-02
655.00,4.5606E-02
660.00,4.2550E-02
665.00,3.9164E-02
670.00,3.6212E-02
675.00,3.3322E-02
680.00,3.0600E-02
685.00,2.8120E-02
690.00,2.5812E-02
695.00,2.3987E-02
700.00,2.2138E-02
705.00,2.0654E-02
710.00,1.9108E-02
715.00,1.8022E-02
720.00,1.7280E-02
725.00,1.6523E-02
730.00,1.5712E-02
