wavelength,intensity
380.00,1.3867E-04
385.00,2.1306E-04
390.00,1.1046E-04
395.00,2.0400E-04
400.00,1.3132E-04
405.00,2.3927E-04
410.00,4.4129E-04
415.00,8.2664E-04
420.00,1.5932E-03
425.00,3.0037E-03
430.00,5.6840E-03
435.00,9.5240E-03
440.00,1.5118E-02
445.00,2.2295E-02
450.00,2.7341E-02
455.00,2.4563E-02
460.00,1.6824E-02
465.00,1.1379E-02
470.00,8.3502E-03
475.00,6.2612E-03
480.00,4.9928E-03
485.00,4.4760E-03
490.00,4.7058E-03
495.00,5.6691E-03
500.00,7.8065E-03
505.00,1.1142E-02
510.00,1.5468E-02
515.00,2.0466E-02
520.00,2.5764E-02
525.00,3.1011E-02
530.00,3.5801E-02
535.00,4.0054E-02
540.00,4.3793E-02
545.00,4.6998E-02
550.00,4.9832E-02
555.00,5.2411E-02
560.00,5.4786E-02
565.00,5.6421E-02
570.00,5.8258E-02
575.00,5.9441E-02
580.00,6.0886E-02
585.00,6.2179E-02
590.00,6.3140E-02
595.00,6.3972E-02
600.00,6.4384E-02
605.00,6.4723E-02
610.00,6.4692E-02
615.00,6.4321E-02
620.00,6.3141E-02
625.00,6.2097E-02
630.00,6.0256E-02
635.00,5.8521E-02
640.00,5.5910E-02
645.00,5.3232E-02
650.00,5.0332E-02
655.00,4.6847E-02
660.00,4.3676E-02
665.00,3.9999E-02
670.00,3.6833E-02
675.00,3.3273E-02
680.00,3.0348E-02
685.00,2.7083E-02
690.00,2.4670E-02
695.00,2.1818E-02
700.00,1.9684E-02
705.00,1.7273E-02
710.00,1.5528E-02
715.00,1.3595E-02
720.00,1.2123E-02
725.00,1.0522E-02
730.00,9.3743E-03
