wavelength,intensity
380.00,2.1357E-04
385.00,3.1860E-04
390.00,2.2203E-04
395.00,0.0000E+00
400.00,2.0226E-04
405.00,4.4959E-04
410.00,6.1229E-04
415.00,7.6330E-04
420.00,1.0991E-03
425.00,2.2032E-03
430.00,4.3374E-03
435.00,8.3417E-03
440.00,1.5253E-02
445.00,2.7791E-02
450.00,3.8642E-02
455.00,3.3208E-02
460.00,2.2359E-02
465.00,1.7164E-02
470.00,1.3847E-02
475.00,1.0776E-02
480.00,1.0068E-02
485.00,1.0957E-02
490.00,1.2381E-02
495.00,1.5727E-02
500.00,1.9637E-02
505.00,2.3979E-02
510.00,2.7806E-02
515.00,3.1578E-02
520.00,3.4252E-02
525.00,3.6098E-02
530.00,3.7776E-02
535.00,3.8731E-02
540.00,4.0047E-02
545.00,4.0940E-02
550.00,4.2485E-02
555.00,4.4137E-02
560.00,4.6423E-02
565.00,4.9211E-02
570.00,5.2663E-02
575.00,5.6601E-02
580.00,6.0388E-02
585.00,6.4142E-02
590.00,6.7354E-02
595.00,6.9482E-02
600.00,7.0669E-02
605.00,7.0588E-02
610.00,6.9810E-02
615.00,6.7328E-02
620.00,6.4131E-02
625.00,5.9861E-02
630.00,5.5816E-02
635.00,5.1232E-02
640.00,4.5889E-02
645.00,4.1113E-02
650.00,3.6586E-02
655.00,3.2299E-02
660.00,2.8044E-02
665.00,2.4440E-02
670.00,2.1110E-02
675.00,1.8185E-02
680.00,1.5637E-02
685.00,1.3143E-02
690.00,1.1078E-02
695.00,9.5354E-03
700.00,8.1304E-03
705.00,6.6005E-03
710.00,5.9736E-03
715.00,4.9857E-03
720.00,4.1327E-03
725.00,3.4493E-03
730.00,3.0040E-03
