wavelength,intensity
380.00,0.0000E+00
385.00,5.6073E-05
390.00,2.2229E-04
395.00,9.3309E-05
400.00,6.7589E-04
405.00,2.3178E-04
410.00,6.5554E-04
415.00,1.4393E-03
420.00,1.8453E-03
425.00,3.5593E-03
430.00,6.3844E-03
435.00,1.1485E-02
440.00,1.9043E-02
445.00,2.9998E-02
450.00,3.9733E-02
455.00,3.4561E-02
460.00,2.3387E-02
465.00,1.7633E-02
470.00,1.3880E-02
475.00,1.0598E-02
480.00,9.3564E-03
485.00,9.4125E-03
490.00,1.0664E-02
495.00,1.2709E-02
500.00,1.6055E-02
505.00,1.9913E-02
510.00,2.3938E-02
515.00,2.8098E-02
520.00,3.1692E-02
525.00,3.5027E-02
530.00,3.8262E-02
535.00,4.1116E-02
540.00,4.3608E-02
545.00,4.5906E-02
550.00,4.8027E-02
555.00,4.9932E-02
560.00,5.1850E-02
565.00,5.3201E-02
570.00,5.4290E-02
575.00,5.5605E-02
580.00,5.6892E-02
585.00,5.7892E-02
590.00,5.9439E-02
595.00,6.0364E-02
600.00,6.0889E-02
605.00,6.2001E-02
610.00,6.2784E-02
615.00,6.2916E-02
620.00,6.3044E-02
625.00,6.2651E-02
630.00,6.1586E-02
635.00,6.0372E-02
640.00,5.8397E-02
645.00,5.5980E-02
650.00,5.3381E-02
655.00,5.0184E-02
660.00,4.6569E-02
665.00,4.3164E-02
670.00,3.9253E-02
675.00,3.5804E-02
680.00,3.2472E-02
685.00,2.9392E-02
690.00,2.5889E-02
695.00,2.3140E-02
700.00,2.0309E-02
705.00,1.8015E-02
710.00,1.5683E-02
715.00,1.3705E-02
720.00,1.1812E-02
725.00,1.0429E-02
730.00,9.3709E-03
