wavelength,intensity
380.00,0.0000E+00
385.00,0.0000E+00
390.00,0.0000E+00
395.00,0.0000E+00
400.00,1.4258E-05
405.00,1.5529E-04
410.00,2.3873E-04
415.00,6.0106E-04
420.00,1.3931E-03
425.00,2.8187E-03
430.00,5.2018E-03
435.00,8.9115E-03
440.00,1.4360E-02
445.00,2.3092E-02
450.00,3.1250E-02
455.00,2.8339E-02
460.00,1.9718E-02
465.00,1.4696E-02
470.00,1.1508E-02
475.00,9.0922E-03
480.00,7.8673E-03
485.00,7.9585E-03
490.00,8.8818E-03
495.00,1.0869E-02
500.00,1.4127E-02
505.00,1.7981E-02
510.00,2.2299E-02
515.00,2.6739E-02
520.00,3.1041E-02
525.00,3.4940E-02
530.00,3.8393E-02
535.00,4.1467E-02
540.00,4.4142E-02
545.00,4.6504E-02
550.00,4.8698E-02
555.00,5.0689E-02
560.00,5.2630E-02
565.00,5.3931E-02
570.00,5.5304E-02
575.00,5.6507E-02
580.00,5.7747E-02
585.00,5.8834E-02
590.00,6.0005E-02
595.00,6.0821E-02
600.00,6.1606E-02
605.00,6.2040E-02
610.00,6.2677E-02
615.00,6.2836E-02
620.00,6.2226E-02
625.00,6.1775E-02
630.00,6.0604E-02
635.00,5.9268E-02
640.00,5.7450E-02
645.00,5.4943E-02
650.00,5.2183E-02
655.00,4.8953E-02
660.00,4.5844E-02
665.00,4.2016E-02
670.00,3.8435E-02
675.00,3.4899E-02
680.00,3.1425E-02
685.00,2.8150E-02
690.00,2.5096E-02
695.00,2.2364E-02
700.00,1.9671E-02
705.00,1.7191E-02
710.00,1.4984E-02
715.00,1.3092E-02
720.00,1.1408E-02
725.00,9.7542E-03
730.00,8.5113E-03
