wavelength,intensity
380.00,0.0000E+00
385.00,7.7542E-05
390.00,4.6684E-04
395.00,1.5257E-02
400.00,6.2355E-03
405.00,2.4477E-02
410.00,0.0000E+00
415.00,4.1796E-03
420.00,1.0271E-02
425.00,4.5613E-02
430.00,1.0635E-01
435.00,2.3467E-01
440.00,4.6813E-01
445.00,8.8405E-01
450.00,1.6290E+00
455.00,2.3254E+00
460.00,2.2386E+00
465.00,1.5283E+00
470.00,1.0076E+00
475.00,6.9425E-01
480.00,4.2751E-01
485.00,2.5346E-01
490.00,1.6470E-01
495.00,1.0767E-01
500.00,6.7660E-02
505.00,3.8834E-02
510.00,2.8383E-02
515.00,1.9985E-02
520.00,1.5352E-02
525.00,6.6325E-03
530.00,1.0347E-02
535.00,3.0983E-03
540.00,7.1473E-03
545.00,0.0000E+00
550.00,0.0000E+00
555.00,6.1758E-03
560.00,9.7740E-04
565.00,1.3631E-03
570.00,4.1512E-03
575.00,1.2438E-02
580.00,8.6053E-03
585.00,6.6194E-03
590.00,2.5764E-04
595.00,6.5652E-03
600.00,0.0000E+00
605.00,3.6775E-03
610.00,7.0533E-03
615.00,2.3810E-03
620.00,4.5976E-03
625.00,1.5809E-02
630.00,4.4416E-04
635.00,1.0570E-03
640.00,0.0000E+00
645.00,0.0000E+00
650.00,5.6549E-04
655.00,0.0000E+00
660.00,8.6139E-03
665.00,2.2010E-03
670.00,0.0000E+00
675.00,0.0000E+00
680.00,9.4676E-03
685.00,0.0000E+00
690.00,0.0000E+00
695.00,0.0000E+00
700.00,0.0000E+00
705.00,1.3980E-02
710.00,2.5172E-02
715.00,0.0000E+00
720.00,0.0000E+00
725.00,3.5443E-03
730.00,0.0000E+00
