wavelength,intensity
380.00,0.0000E+00
385.00,3.6779E-05
390.00,6.0674E-05
395.00,0.0000E+00
400.00,0.0000E+00
405.00,1.3672E-04
410.00,4.2818E-04
415.00,4.8176E-04
420.00,1.2521E-03
425.00,3.0514E-03
430.00,4.5634E-03
435.00,6.8943E-03
440.00,1.0556E-02
445.00,1.6841E-02
450.00,2.0994E-02
455.00,1.7893E-02
460.00,1.4338E-02
465.00,1.3299E-02
470.00,1.1797E-02
475.00,1.0992E-02
480.00,1.1426E-02
485.00,1.2545E-02
490.00,1.3999E-02
495.00,1.6415E-02
500.00,1.8675E-02
505.00,2.0894E-02
510.00,2.2789E-02
515.00,2.4851E-02
520.00,2.6700E-02
525.00,2.8795E-02
530.00,3.0628E-02
535.00,3.2809E-02
540.00,3.5446E-02
545.00,3.8046E-02
550.00,4.0416E-02
555.00,4.4004E-02
560.00,4.7615E-02
565.00,5.0936E-02
570.00,5.4779E-02
575.00,5.8751E-02
580.00,6.3288E-02
585.00,6.7049E-02
590.00,7.0595E-02
595.00,7.3186E-02
600.00,7.5382E-02
605.00,7.6194E-02
610.00,7.5702E-02
615.00,7.4206E-02
620.00,7.0810E-02
625.00,6.7349E-02
630.00,6.3601E-02
635.00,5.9263E-02
640.00,5.4303E-02
645.00,4.8544E-02
650.00,4.3769E-02
655.00,3.8816E-02
660.00,3.4634E-02
665.00,2.9905E-02
670.00,2.6437E-02
675.00,2.2493E-02
680.00,1.9770E-02
685.00,1.7105E-02
690.00,1.4652E-02
695.00,1.2645E-02
700.00,1.1025E-02
705.00,8.9455E-03
710.00,7.5164E-03
715.00,6.1815E-03
720.00,5.8106E-03
725.00,4.5907E-03
730.00,3.4220E-03
