wavelength,intensity
380.00,3.5543E-04
385.00,3.7098E-04
390.00,1.9365E-04
395.00,3.3100E-05
400.00,7.2573E-04
405.00,7.5269E-04
410.00,9.2515E-04
415.00,2.0698E-03
420.00,3.2835E-03
425.00,6.1830E-03
430.00,1.1384E-02
435.00,1.9363E-02
440.00,3.2383E-02
445.00,4.9328E-02
450.00,5.7225E-02
455.00,4.7630E-02
460.00,3.4689E-02
465.00,2.8372E-02
470.00,2.3727E-02
475.00,2.0152E-02
480.00,1.8613E-02
485.00,1.9414E-02
490.00,2.0706E-02
495.00,2.4138E-02
500.00,2.8143E-02
505.00,3.1972E-02
510.00,3.5311E-02
515.00,3.7845E-02
520.00,4.0137E-02
525.00,4.1583E-02
530.00,4.3089E-02
535.00,4.4533E-02
540.00,4.6021E-02
545.00,4.7324E-02
550.00,4.8410E-02
555.00,4.9554E-02
560.00,5.0644E-02
565.00,5.1564E-02
570.00,5.2348E-02
575.00,5.3219E-02
580.00,5.3697E-02
585.00,5.4246E-02
590.00,5.5155E-02
595.00,5.5470E-02
600.00,5.4916E-02
605.00,5.4755E-02
610.00,5.4817E-02
615.00,5.4879E-02
620.00,5.3854E-02
625.00,5.2711E-02
630.00,5.0696E-02
635.00,4.8159E-02
640.00,4.4992E-02
645.00,4.1834E-02
650.00,3.8037E-02
655.00,3.4094E-02
660.00,3.0370E-02
665.00,2.6701E-02
670.00,2.3884E-02
675.00,2.0691E-02
680.00,1.7925E-02
685.00,1.5401E-02
690.00,1.3446E-02
695.00,1.1776E-02
700.00,9.7563E-03
705.00,8.1744E-03
710.00,7.3453E-03
715.00,6.5865E-03
720.00,5.5165E-03
725.00,4.7565E-03
730.00,4.3021E-03
