wavelength,intensity
380.00,3.3676E-06
385.00,1.0549E-06
390.00,1.5299E-05
395.00,8.4070E-05
400.00,4.1432E-04
405.00,1.0610E-03
410.00,2.3135E-03
415.00,5.3754E-03
420.00,1.1732E-02
425.00,2.3138E-02
430.00,3.9675E-02
435.00,6.0905E-02
440.00,8.8451E-02
445.00,9.9392E-02
450.00,7.0068E-02
455.00,3.9591E-02
460.00,2.4689E-02
465.00,1.5481E-02
470.00,9.4816E-03
475.00,6.6889E-03
480.00,5.3174E-03
485.00,4.8683E-03
490.00,5.6518E-03
495.00,8.0072E-03
500.00,1.2038E-02
505.00,1.7684E-02
510.00,2.4481E-02
515.00,3.1848E-02
520.00,3.8786E-02
525.00,4.4829E-02
530.00,4.9676E-02
535.00,5.3361E-02
540.00,5.6212E-02
545.00,5.8140E-02
550.00,5.9452E-02
555.00,6.0448E-02
560.00,6.0899E-02
565.00,6.0585E-02
570.00,5.9906E-02
575.00,5.8832E-02
580.00,5.7291E-02
585.00,5.5436E-02
590.00,5.3295E-02
595.00,5.0942E-02
600.00,4.8215E-02
605.00,4.4950E-02
610.00,4.1862E-02
615.00,3.8698E-02
620.00,3.5331E-02
625.00,3.2519E-02
630.00,2.9503E-02
635.00,2.6912E-02
640.00,2.4074E-02
645.00,2.1615E-02
650.00,1.9273E-02
655.00,1.7095E-02
660.00,1.5211E-02
665.00,1.3384E-02
670.00,1.1671E-02
675.00,1.0329E-02
680.00,9.0257E-03
685.00,7.9566E-03
690.00,6.8430E-03
695.00,6.0273E-03
700.00,5.3662E-03
705.00,4.6132E-03
710.00,3.9184E-03
715.00,3.3158E-03
720.00,2.9767E-03
725.00,2.5285E-03
730.00,2.1837E-03
