wavelength,intensity
380.00,1.9287E-04
385.00,2.1952E-04
390.00,2.4043E-04
395.00,2.2456E-04
400.00,2.8238E-04
405.00,3.4088E-04
410.00,5.0894E-04
415.00,7.7153E-04
420.00,1.3926E-03
425.00,2.6105E-03
430.00,4.8038E-03
435.00,8.3879E-03
440.00,1.3994E-02
445.00,2.2882E-02
450.00,3.4132E-02
455.00,3.6423E-02
460.00,2.7381E-02
465.00,1.9972E-02
470.00,1.6003E-02
475.00,1.2652E-02
480.00,1.0615E-02
485.00,1.0249E-02
490.00,1.1140E-02
495.00,1.3207E-02
500.00,1.6371E-02
505.00,2.0525E-02
510.00,2.4934E-02
515.00,2.9397E-02
520.00,3.3460E-02
525.00,3.6832E-02
530.00,3.9519E-02
535.00,4.1714E-02
540.00,4.3521E-02
545.00,4.5270E-02
550.00,4.6847E-02
555.00,4.8387E-02
560.00,5.0000E-02
565.00,5.1300E-02
570.00,5.2633E-02
575.00,5.3939E-02
580.00,5.5390E-02
585.00,5.6629E-02
590.00,5.8080E-02
595.00,5.9423E-02
600.00,6.0584E-02
605.00,6.1795E-02
610.00,6.3098E-02
615.00,6.4167E-02
620.00,6.4705E-02
625.00,6.5382E-02
630.00,6.5432E-02
635.00,6.4945E-02
640.00,6.3815E-02
645.00,6.1886E-02
650.00,5.9288E-02
655.00,5.5857E-02
660.00,5.2271E-02
665.00,4.8075E-02
670.00,4.4123E-02
675.00,3.9935E-02
680.00,3.5966E-02
685.00,3.2085E-02
690.00,2.8719E-02
695.00,2.5580E-02
700.00,2.2479E-02
705.00,1.9943E-02
710.00,1.7183E-02
715.00,1.5115E-02
720.00,1.3038E-02
725.00,1.1224E-02
730.00,9.6729E-03
