wavelength,intensity
380.00,1.6762E-03
385.00,1.9739E-03
390.00,1.6050E-03
395.00,4.1159E-03
400.00,4.1204E-03
405.00,5.7532E-03
410.00,5.3794E-03
415.00,7.6009E-03
420.00,1.1125E-02
425.00,2.1201E-02
430.00,3.9415E-02
435.00,7.8658E-02
440.00,1.6558E-01
445.00,3.5591E-01
450.00,7.4015E-01
455.00,1.3634E+00
460.00,1.9702E+00
465.00,1.9370E+00
470.00,1.3514E+00
475.00,8.8512E-01
480.00,5.9803E-01
485.00,3.7371E-01
490.00,2.2827E-01
495.00,1.4543E-01
500.00,9.5049E-02
505.00,6.1841E-02
510.00,4.0161E-02
515.00,2.6578E-02
520.00,1.7918E-02
525.00,1.2471E-02
530.00,9.2558E-03
535.00,6.0764E-03
540.00,5.9916E-03
545.00,3.3051E-03
550.00,2.9440E-03
555.00,2.2640E-03
560.00,2.1082E-03
565.00,2.6791E-03
570.00,1.5438E-03
575.00,1.3879E-03
580.00,5.6497E-04
585.00,8.3632E-04
590.00,1.4248E-03
595.00,1.0200E-03
600.00,0.0000E+00
605.00,4.9380E-04
610.00,4.2285E-04
615.00,6.0477E-04
620.00,4.9235E-04
625.00,9.8461E-05
630.00,0.0000E+00
635.00,1.1380E-03
640.00,1.3283E-03
645.00,1.6602E-04
650.00,6.5302E-04
655.00,0.0000E+00
660.00,3.5615E-05
665.00,6.8862E-04
670.00,2.7161E-06
675.00,1.6185E-04
680.00,0.0000E+00
685.00,9.5034E-04
690.00,0.0000E+00
695.00,0.0000E+00
700.00,0.0000E+00
705.00,0.0000E+00
710.00,3.6761E-05
715.00,2.2044E-04
720.00,6.3371E-04
725.00,0.0000E+00
730.00,0.0000E+00
