wavelength,intensity
380.00,7.8456E-05
385.00,2.9908E-04
390.00,7.4908E-05
395.00,5.9297E-05
400.00,2.4272E-04
405.00,2.8850E-04
410.00,2.5770E-04
415.00,7.4522E-04
420.00,8.8635E-04
425.00,1.5962E-03
430.00,3.2029E-03
435.00,5.5960E-03
440.00,9.3009E-03
445.00,1.5015E-02
450.00,2.1972E-02
455.00,2.4570E-02
460.00,1.9600E-02
465.00,1.4889E-02
470.00,1.2235E-02
475.00,1.0625E-02
480.00,9.6232E-03
485.00,9.9751E-03
490.00,1.1329E-02
495.00,1.3518E-02
500.00,1.6338E-02
505.00,1.9302E-02
510.00,2.2065E-02
515.00,2.4565E-02
520.00,2.6396E-02
525.00,2.7995E-02
530.00,2.9318E-02
535.00,3.0569E-02
540.00,3.1830E-02
545.00,3.3334E-02
550.00,3.5330E-02
555.00,3.8021E-02
560.00,4.1560E-02
565.00,4.5872E-02
570.00,5.1389E-02
575.00,5.7455E-02
580.00,6.3538E-02
585.00,7.0080E-02
590.00,7.5897E-02
595.00,8.0375E-02
600.00,8.3350E-02
605.00,8.4551E-02
610.00,8.4637E-02
615.00,8.2884E-02
620.00,7.9507E-02
625.00,7.5317E-02
630.00,7.0515E-02
635.00,6.5443E-02
640.00,5.9664E-02
645.00,5.4212E-02
650.00,4.8327E-02
655.00,4.3002E-02
660.00,3.7738E-02
665.00,3.2933E-02
670.00,2.8560E-02
675.00,2.4616E-02
680.00,2.1049E-02
685.00,1.8337E-02
690.00,1.5634E-02
695.00,1.3525E-02
700.00,1.1712E-02
705.00,1.0059E-02
710.00,8.5076E-03
715.00,7.3419E-03
720.00,6.2028E-03
725.00,5.1796E-03
730.00,4.5628E-03
