wavelength,intensity
380.00,2.1323E-05
385.00,6.0877E-05
390.00,1.2183E-05
395.00,4.5823E-05
400.00,1.0953E-04
405.00,1.7331E-04
410.00,1.2540E-04
415.00,3.2965E-04
420.00,7.7761E-04
425.00,1.5564E-03
430.00,2.7769E-03
435.00,4.7833E-03
440.00,7.7404E-03
445.00,1.2527E-02
450.00,1.9840E-02
455.00,2.4847E-02
460.00,2.2524E-02
465.00,1.7223E-02
470.00,1.4018E-02
475.00,1.2109E-02
480.00,1.0218E-02
485.00,9.1012E-03
490.00,8.9554E-03
495.00,9.5067E-03
500.00,1.1089E-02
505.00,1.3531E-02
510.00,1.6518E-02
515.00,2.0029E-02
520.00,2.3671E-02
525.00,2.7294E-02
530.00,3.0715E-02
535.00,3.3714E-02
540.00,3.6735E-02
545.00,3.9871E-02
550.00,4.2998E-02
555.00,4.6303E-02
560.00,5.0203E-02
565.00,5.3610E-02
570.00,5.7168E-02
575.00,6.0923E-02
580.00,6.4510E-02
585.00,6.7452E-02
590.00,7.0412E-02
595.00,7.2384E-02
600.00,7.3486E-02
605.00,7.3794E-02
610.00,7.3649E-02
615.00,7.2557E-02
620.00,7.0314E-02
625.00,6.7400E-02
630.00,6.4292E-02
635.00,6.0604E-02
640.00,5.6452E-02
645.00,5.2237E-02
650.00,4.7606E-02
655.00,4.3178E-02
660.00,3.8984E-02
665.00,3.4617E-02
670.00,3.0670E-02
675.00,2.7025E-02
680.00,2.3728E-02
685.00,2.0923E-02
690.00,1.8137E-02
695.00,1.5778E-02
700.00,1.3875E-02
705.00,1.1865E-02
710.00,1.0119E-02
715.00,8.9136E-03
720.00,7.8528E-03
725.00,6.4892E-03
730.00,5.7789E-03
