wavelength,intensity
380.00,0.0000E+00
385.00,0.0000E+00
390.00,0.0000E+00
395.00,0.0000E+00
400.00,0.0000E+00
405.00,1.9306E-04
410.00,6.8734E-04
415.00,1.6022E-03
420.00,3.8463E-03
425.00,7.3597E-03
430.00,1.2976E-02
435.00,2.0002E-02
440.00,2.8770E-02
445.00,4.0367E-02
450.00,4.7119E-02
455.00,3.9015E-02
460.00,2.8090E-02
465.00,2.2622E-02
470.00,1.8405E-02
475.00,1.5896E-02
480.00,1.5617E-02
485.00,1.6824E-02
490.00,1.8657E-02
495.00,2.1216E-02
500.00,2.4213E-02
505.00,2.7219E-02
510.00,2.9967E-02
515.00,3.2722E-02
520.00,3.5471E-02
525.00,3.8067E-02
530.00,4.0390E-02
535.00,4.2905E-02
540.00,4.5443E-02
545.00,4.7640E-02
550.00,4.9747E-02
555.00,5.1633E-02
560.00,5.3690E-02
565.00,5.5124E-02
570.00,5.6362E-02
575.00,5.7005E-02
580.00,5.7996E-02
585.00,5.8281E-02
590.00,5.8811E-02
595.00,5.8629E-02
600.00,5.7980E-02
605.00,5.6716E-02
610.00,5.5610E-02
615.00,5.3601E-02
620.00,5.0988E-02
625.00,4.8594E-02
630.00,4.5895E-02
635.00,4.2862E-02
640.00,3.9776E-02
645.00,3.6552E-02
650.00,3.3439E-02
655.00,3.0179E-02
660.00,2.7046E-02
665.00,2.4129E-02
670.00,2.1589E-02
675.00,1.9014E-02
680.00,1.6553E-02
685.00,1.4957E-02
690.00,1.2852E-02
695.00,1.1198E-02
700.00,9.4877E-03
705.00,8.3824E-03
710.00,7.0092E-03
715.00,6.3243E-03
720.00,5.3077E-03
725.00,4.4561E-03
730.00,3.7245E-03
