wavelength,intensity
380.00,0.0000E+00
385.00,0.0000E+00
390.00,0.0000E+00
395.00,0.0000E+00
400.00,3.6397E-05
405.00,8.5465E-05
410.00,4.3752E-04
415.00,1.0496E-03
420.00,2.3018E-03
425.00,4.3983E-03
430.00,8.2319E-03
435.00,1.3199E-02
440.00,2.1560E-02
445.00,3.3143E-02
450.00,3.7116E-02
455.00,2.9273E-02
460.00,2.1245E-02
465.00,1.6938E-02
470.00,1.3522E-02
475.00,1.1257E-02
480.00,1.0571E-02
485.00,1.1156E-02
490.00,1.2871E-02
495.00,1.5339E-02
500.00,1.8631E-02
505.00,2.1861E-02
510.00,2.5092E-02
515.00,2.8016E-02
520.00,3.0582E-02
525.00,3.3166E-02
530.00,3.5325E-02
535.00,3.7642E-02
540.00,4.0054E-02
545.00,4.2615E-02
550.00,4.5302E-02
555.00,4.8124E-02
560.00,5.0887E-02
565.00,5.3759E-02
570.00,5.6221E-02
575.00,5.8607E-02
580.00,6.1010E-02
585.00,6.2677E-02
590.00,6.4416E-02
595.00,6.5437E-02
600.00,6.5886E-02
605.00,6.5847E-02
610.00,6.5047E-02
615.00,6.3671E-02
620.00,6.2133E-02
625.00,6.0024E-02
630.00,5.7080E-02
635.00,5.4195E-02
640.00,5.0995E-02
645.00,4.7321E-02
650.00,4.3634E-02
655.00,3.9808E-02
660.00,3.6222E-02
665.00,3.2461E-02
670.00,2.9139E-02
675.00,2.5889E-02
680.00,2.3009E-02
685.00,2.0281E-02
690.00,1.7772E-02
695.00,1.5504E-02
700.00,1.3633E-02
705.00,1.1790E-02
710.00,1.0253E-02
715.00,8.8249E-03
720.00,7.3943E-03
725.00,6.1545E-03
730.00,5.5555E-03
