wavelength,intensity
380.00,0.0000E+00
385.00,0.0000E+00
390.00,0.0000E+00
395.00,0.0000E+00
400.00,0.0000E+00
405.00,0.0000E+00
410.00,3.5067E-06
415.00,4.1983E-04
420.00,1.4464E-03
425.00,2.8412E-03
430.00,5.7829E-03
435.00,9.7175E-03
440.00,1.8802E-02
445.00,2.9573E-02
450.00,4.8851E-02
455.00,7.9214E-02
460.00,1.2186E-01
465.00,1.5107E-01
470.00,1.3643E-01
475.00,1.0432E-01
480.00,8.0314E-02
485.00,6.3651E-02
490.00,4.8637E-02
495.00,3.8503E-02
500.00,3.3739E-02
505.00,3.1320E-02
510.00,3.1200E-02
515.00,3.2954E-02
520.00,3.6307E-02
525.00,4.0054E-02
530.00,4.3243E-02
535.00,4.6445E-02
540.00,4.8958E-02
545.00,4.9531E-02
550.00,5.2319E-02
555.00,5.3001E-02
560.00,5.3746E-02
565.00,5.4054E-02
570.00,5.3683E-02
575.00,5.3611E-02
580.00,5.1740E-02
585.00,5.0713E-02
590.00,4.9869E-02
595.00,4.7211E-02
600.00,4.5569E-02
605.00,4.3608E-02
610.00,4.1101E-02
615.00,3.8495E-02
620.00,3.6266E-02
625.00,3.3894E-02
630.00,3.1857E-02
635.00,2.9558E-02
640.00,2.6055E-02
645.00,2.4695E-02
650.00,2.3389E-02
655.00,2.0789E-02
660.00,1.7748E-02
665.00,1.6705E-02
670.00,1.4647E-02
675.00,1.2664E-02
680.00,1.1728E-02
685.00,1.0417E-02
690.00,9.0208E-03
695.00,6.9788E-03
700.00,5.3329E-03
705.00,4.2733E-03
710.00,4.2151E-03
715.00,3.9694E-03
720.00,2.9247E-03
725.00,3.0584E-03
730.00,3.0888E-03
