wavelength,intensity
380.00,0.0000E+00
385.00,2.2940E-04
390.00,1.7798E-05
395.00,3.8318E-06
400.00,3.5751E-04
405.00,1.5625E-04
410.00,6.6722E-04
415.00,5.1010E-04
420.00,2.0159E-03
425.00,3.4532E-03
430.00,5.2769E-03
435.00,7.9263E-03
440.00,1.1747E-02
445.00,1.7834E-02
450.00,2.3131E-02
455.00,2.2018E-02
460.00,1.7282E-02
465.00,1.3463E-02
470.00,1.0960E-02
475.00,9.1346E-03
480.00,8.9570E-03
485.00,9.2042E-03
490.00,1.0408E-02
495.00,1.2352E-02
500.00,1.4987E-02
505.00,1.8235E-02
510.00,2.1110E-02
515.00,2.4611E-02
520.00,2.7544E-02
525.00,3.0657E-02
530.00,3.2988E-02
535.00,3.5525E-02
540.00,3.8402E-02
545.00,4.0443E-02
550.00,4.3063E-02
555.00,4.6561E-02
560.00,4.9799E-02
565.00,5.2580E-02
570.00,5.5888E-02
575.00,5.9229E-02
580.00,6.3006E-02
585.00,6.5589E-02
590.00,6.9392E-02
595.00,7.0970E-02
600.00,7.1983E-02
605.00,7.2576E-02
610.00,7.2107E-02
615.00,7.0191E-02
620.00,6.7410E-02
625.00,6.4230E-02
630.00,6.0090E-02
635.00,5.6263E-02
640.00,5.1562E-02
645.00,4.6960E-02
650.00,4.1889E-02
655.00,3.7474E-02
660.00,3.3423E-02
665.00,2.9531E-02
670.00,2.5682E-02
675.00,2.2430E-02
680.00,1.9899E-02
685.00,1.7394E-02
690.00,1.4690E-02
695.00,1.3185E-02
700.00,1.1279E-02
705.00,9.4996E-03
710.00,8.4561E-03
715.00,6.0366E-03
720.00,5.8273E-03
725.00,4.8320E-03
730.00,3.4913E-03
