wavelength,intensity
380.00,9.0433E-06
385.00,9.5207E-05
390.00,7.3939E-05
395.00,8.7376E-05
400.00,1.5290E-04
405.00,2.8997E-04
410.00,2.4768E-04
415.00,5.6399E-04
420.00,1.2050E-03
425.00,2.3701E-03
430.00,4.5493E-03
435.00,7.8618E-03
440.00,1.2872E-02
445.00,2.0529E-02
450.00,2.9235E-02
455.00,3.0552E-02
460.00,2.4876E-02
465.00,1.9611E-02
470.00,1.6217E-02
475.00,1.3418E-02
480.00,1.1348E-02
485.00,1.0431E-02
490.00,1.0256E-02
495.00,1.1064E-02
500.00,1.3043E-02
505.00,1.5977E-02
510.00,1.9683E-02
515.00,2.3668E-02
520.00,2.7638E-02
525.00,3.1449E-02
530.00,3.4749E-02
535.00,3.7805E-02
540.00,4.0711E-02
545.00,4.3389E-02
550.00,4.6194E-02
555.00,4.8821E-02
560.00,5.1871E-02
565.00,5.4431E-02
570.00,5.7278E-02
575.00,5.9892E-02
580.00,6.2388E-02
585.00,6.4706E-02
590.00,6.6316E-02
595.00,6.7493E-02
600.00,6.7571E-02
605.00,6.7525E-02
610.00,6.6658E-02
615.00,6.5170E-02
620.00,6.3069E-02
625.00,6.0378E-02
630.00,5.7288E-02
635.00,5.4109E-02
640.00,5.0234E-02
645.00,4.6257E-02
650.00,4.2320E-02
655.00,3.8275E-02
660.00,3.4661E-02
665.00,3.0981E-02
670.00,2.7466E-02
675.00,2.4273E-02
680.00,2.1504E-02
685.00,1.8758E-02
690.00,1.6280E-02
695.00,1.4344E-02
700.00,1.2568E-02
705.00,1.0704E-02
710.00,9.2382E-03
715.00,8.0241E-03
720.00,7.0870E-03
725.00,6.0431E-03
730.00,5.4237E-03
