wavelength,intensity
380.00,0.0000E+00
385.00,0.0000E+00
390.00,0.0000E+00
395.00,0.0000E+00
400.00,0.0000E+00
405.00,0.0000E+00
410.00,0.0000E+00
415.00,5.2429E-06
420.00,9.2369E-04
425.00,1.9949E-03
430.00,5.5565E-03
435.00,1.0485E-02
440.00,2.0014E-02
445.00,3.5088E-02
450.00,4.5207E-02
455.00,3.6344E-02
460.00,2.4258E-02
465.00,1.8140E-02
470.00,1.4110E-02
475.00,1.0627E-02
480.00,1.0017E-02
485.00,1.1052E-02
490.00,1.3097E-02
495.00,1.6307E-02
500.00,2.0757E-02
505.00,2.4841E-02
510.00,2.8810E-02
515.00,3.2387E-02
520.00,3.5134E-02
525.00,3.6922E-02
530.00,3.8403E-02
535.00,3.9323E-02
540.00,4.0290E-02
545.00,4.1344E-02
550.00,4.2477E-02
555.00,4.4270E-02
560.00,4.6339E-02
565.00,4.9325E-02
570.00,5.2416E-02
575.00,5.6099E-02
580.00,5.9754E-02
585.00,6.3665E-02
590.00,6.6223E-02
595.00,6.9158E-02
600.00,6.9974E-02
605.00,6.9705E-02
610.00,6.8397E-02
615.00,6.6783E-02
620.00,6.2991E-02
625.00,5.8856E-02
630.00,5.5014E-02
635.00,5.0105E-02
640.00,4.4971E-02
645.00,4.0567E-02
650.00,3.6041E-02
655.00,3.1310E-02
660.00,2.6969E-02
665.00,2.3686E-02
670.00,1.9950E-02
675.00,1.7586E-02
680.00,1.5045E-02
685.00,1.2226E-02
690.00,1.0206E-02
695.00,8.3188E-03
700.00,7.3493E-03
705.00,6.3214E-03
710.00,5.3997E-03
715.00,3.8501E-03
720.00,2.9776E-03
725.00,2.0967E-03
730.00,2.8111E-03
