wavelength,intensity
380.00,2.5681E-04
385.00,2.8053E-04
390.00,4.3212E-04
395.00,2.4937E-04
400.00,3.3342E-04
405.00,6.3437E-04
410.00,9.0104E-04
415.00,1.3892E-03
420.00,2.9380E-03
425.00,6.3714E-03
430.00,1.2322E-02
435.00,2.4224E-02
440.00,4.6209E-02
445.00,7.7742E-02
450.00,9.1885E-02
455.00,7.0027E-02
460.00,4.8446E-02
465.00,3.5540E-02
470.00,2.5093E-02
475.00,1.7515E-02
480.00,1.4650E-02
485.00,1.2948E-02
490.00,1.4030E-02
495.00,1.6646E-02
500.00,2.0939E-02
505.00,2.6529E-02
510.00,3.2464E-02
515.00,3.8101E-02
520.00,4.3466E-02
525.00,4.7527E-02
530.00,5.0667E-02
535.00,5.2537E-02
540.00,5.3700E-02
545.00,5.4527E-02
550.00,5.4252E-02
555.00,5.4205E-02
560.00,5.4082E-02
565.00,5.3851E-02
570.00,5.3696E-02
575.00,5.3063E-02
580.00,5.3243E-02
585.00,5.2880E-02
590.00,5.2515E-02
595.00,5.1569E-02
600.00,4.9858E-02
605.00,4.8310E-02
610.00,4.6454E-02
615.00,4.4084E-02
620.00,4.1261E-02
625.00,3.8825E-02
630.00,3.5624E-02
635.00,3.2546E-02
640.00,2.9532E-02
645.00,2.6993E-02
650.00,2.4494E-02
655.00,2.1740E-02
660.00,1.9469E-02
665.00,1.7193E-02
670.00,1.4983E-02
675.00,1.3252E-02
680.00,1.1693E-02
685.00,1.0064E-02
690.00,9.2847E-03
695.00,7.8036E-03
700.00,6.8743E-03
705.00,6.0565E-03
710.00,5.3209E-03
715.00,4.8158E-03
720.00,4.1675E-03
725.00,3.6648E-03
730.00,3.2737E-03
