wavelength,intensity
380.00,8.8575E-05
385.00,1.4579E-04
390.00,9.4738E-05
395.00,1.3188E-04
400.00,2.0338E-04
405.00,2.3689E-04
410.00,3.5661E-04
415.00,6.2669E-04
420.00,1.3385E-03
425.00,2.6559E-03
430.00,5.1429E-03
435.00,8.7081E-03
440.00,1.3914E-02
445.00,2.1920E-02
450.00,3.0671E-02
455.00,3.1706E-02
460.00,2.4358E-02
465.00,1.7925E-02
470.00,1.4506E-02
475.00,1.1913E-02
480.00,9.9983E-03
485.00,9.2490E-03
490.00,9.3576E-03
495.00,1.0435E-02
500.00,1.2566E-02
505.00,1.5744E-02
510.00,1.9585E-02
515.00,2.3614E-02
520.00,2.7732E-02
525.00,3.1514E-02
530.00,3.4981E-02
535.00,3.8139E-02
540.00,4.0887E-02
545.00,4.3726E-02
550.00,4.6281E-02
555.00,4.8975E-02
560.00,5.1880E-02
565.00,5.4283E-02
570.00,5.6784E-02
575.00,5.9289E-02
580.00,6.1629E-02
585.00,6.3528E-02
590.00,6.5317E-02
595.00,6.6702E-02
600.00,6.7514E-02
605.00,6.7700E-02
610.00,6.7822E-02
615.00,6.6782E-02
620.00,6.4749E-02
625.00,6.2366E-02
630.00,5.9137E-02
635.00,5.5500E-02
640.00,5.1758E-02
645.00,4.7447E-02
650.00,4.3195E-02
655.00,3.8882E-02
660.00,3.4998E-02
665.00,3.0880E-02
670.00,2.7433E-02
675.00,2.4070E-02
680.00,2.1155E-02
685.00,1.8352E-02
690.00,1.5965E-02
695.00,1.3876E-02
700.00,1.2116E-02
705.00,1.0371E-02
710.00,8.8933E-03
715.00,7.6910E-03
720.00,6.6647E-03
725.00,5.6115E-03
730.00,4.9922E-03
