wavelength,intensity
380.00,0.0000E+00
385.00,2.8722E-05
390.00,6.5099E-05
395.00,1.2705E-04
400.00,2.9574E-04
405.00,5.5094E-04
410.00,1.3521E-03
415.00,2.9891E-03
420.00,6.8254E-03
425.00,1.3581E-02
430.00,2.4734E-02
435.00,3.6305E-02
440.00,4.7003E-02
445.00,5.6954E-02
450.00,5.4207E-02
455.00,3.6476E-02
460.00,2.3226E-02
465.00,1.6927E-02
470.00,1.2508E-02
475.00,9.7050E-03
480.00,9.1236E-03
485.00,9.6768E-03
490.00,1.1493E-02
495.00,1.4588E-02
500.00,1.8551E-02
505.00,2.2583E-02
510.00,2.6822E-02
515.00,3.0734E-02
520.00,3.4371E-02
525.00,3.7306E-02
530.00,4.0171E-02
535.00,4.2679E-02
540.00,4.5156E-02
545.00,4.7538E-02
550.00,4.9878E-02
555.00,5.2729E-02
560.00,5.5573E-02
565.00,5.7768E-02
570.00,5.9371E-02
575.00,6.1173E-02
580.00,6.2129E-02
585.00,6.2592E-02
590.00,6.2208E-02
595.00,6.1505E-02
600.00,5.9507E-02
605.00,5.7399E-02
610.00,5.4586E-02
615.00,5.1016E-02
620.00,4.7352E-02
625.00,4.4051E-02
630.00,4.0025E-02
635.00,3.6745E-02
640.00,3.2931E-02
645.00,2.9333E-02
650.00,2.6255E-02
655.00,2.3039E-02
660.00,2.0420E-02
665.00,1.7710E-02
670.00,1.5671E-02
675.00,1.3585E-02
680.00,1.1753E-02
685.00,1.0438E-02
690.00,8.8853E-03
695.00,7.7771E-03
700.00,6.5440E-03
705.00,5.6657E-03
710.00,4.9859E-03
715.00,4.3451E-03
720.00,3.7921E-03
725.00,3.0331E-03
730.00,2.6076E-03
