wavelength,intensity
380.00,1.2146E-03
385.00,-4.4175E-04
390.00,0.0000E+00
395.00,8.2515E-04
400.00,1.1971E-04
405.00,1.0384E-03
410.00,7.7558E-04
415.00,5.3105E-03
420.00,1.1938E-02
425.00,2.1748E-02
430.00,3.8217E-02
435.00,5.3885E-02
440.00,6.6288E-02
445.00,6.3998E-02
450.00,4.0875E-02
455.00,2.3590E-02
460.00,1.4000E-02
465.00,5.8849E-03
470.00,3.5512E-03
475.00,4.2257E-03
480.00,1.1731E-03
485.00,5.3080E-03
490.00,5.5470E-03
495.00,6.7855E-03
500.00,1.0701E-02
505.00,1.5771E-02
510.00,2.0004E-02
515.00,2.7071E-02
520.00,3.2656E-02
525.00,4.0395E-02
530.00,4.6969E-02
535.00,5.0824E-02
540.00,5.4528E-02
545.00,5.7592E-02
550.00,5.9366E-02
555.00,5.9768E-02
560.00,6.1459E-02
565.00,6.0419E-02
570.00,5.9639E-02
575.00,6.0502E-02
580.00,5.8590E-02
585.00,5.7812E-02
590.00,5.5949E-02
595.00,5.3814E-02
600.00,5.1931E-02
605.00,4.8516E-02
610.00,4.9526E-02
615.00,4.2377E-02
620.00,4.3289E-02
625.00,3.5892E-02
630.00,3.4891E-02
635.00,3.2720E-02
640.00,3.1239E-02
645.00,2.7750E-02
650.00,2.3388E-02
655.00,2.2839E-02
660.00,2.1366E-02
665.00,1.9593E-02
670.00,1.7533E-02
675.00,1.5035E-02
680.00,1.4285E-02
685.00,1.4427E-02
690.00,1.4284E-02
695.00,9.2054E-03
700.00,9.0154E-03
705.00,1.0286E-02
710.00,9.1501E-03
715.00,7.6360E-03
720.00,7.7937E-03
725.00,4.5290E-03
730.00,5.5229E-03
