wavelength,intensity
380.00,1.2247E-04
385.00,1.8038E-04
390.00,1.8872E-04
395.00,2.6357E-04
400.00,4.3956E-04
405.00,8.0860E-04
410.00,1.6092E-03
415.00,3.5784E-03
420.00,7.5794E-03
425.00,1.4894E-02
430.00,2.6676E-02
435.00,4.2409E-02
440.00,6.4741E-02
445.00,8.8280E-02
450.00,8.2481E-02
455.00,5.0316E-02
460.00,3.0606E-02
465.00,2.0443E-02
470.00,1.2720E-02
475.00,8.4523E-03
480.00,6.5552E-03
485.00,5.6553E-03
490.00,6.0302E-03
495.00,7.9410E-03
500.00,1.1720E-02
505.00,1.7207E-02
510.00,2.4107E-02
515.00,3.1593E-02
520.00,3.8782E-02
525.00,4.4685E-02
530.00,4.8798E-02
535.00,5.1728E-02
540.00,5.3945E-02
545.00,5.5635E-02
550.00,5.6948E-02
555.00,5.8041E-02
560.00,5.9036E-02
565.00,5.9564E-02
570.00,5.9615E-02
575.00,5.9435E-02
580.00,5.8612E-02
585.00,5.7278E-02
590.00,5.5562E-02
595.00,5.3113E-02
600.00,5.0419E-02
605.00,4.7413E-02
610.00,4.4380E-02
615.00,4.1209E-02
620.00,3.7893E-02
625.00,3.4811E-02
630.00,3.1791E-02
635.00,2.8976E-02
640.00,2.6083E-02
645.00,2.3521E-02
650.00,2.0981E-02
655.00,1.8800E-02
660.00,1.6616E-02
665.00,1.4638E-02
670.00,1.2989E-02
675.00,1.1468E-02
680.00,1.0036E-02
685.00,8.7474E-03
690.00,7.7261E-03
695.00,6.8447E-03
700.00,6.0092E-03
705.00,5.2217E-03
710.00,4.5444E-03
715.00,3.9819E-03
720.00,3.5466E-03
725.00,3.0700E-03
730.00,2.7098E-03
