wavelength,intensity
380.00,1.2669E-04
385.00,1.5816E-04
390.00,1.7175E-04
395.00,1.9461E-04
400.00,2.7151E-04
405.00,4.4262E-04
410.00,6.9004E-04
415.00,1.3443E-03
420.00,2.6566E-03
425.00,5.1654E-03
430.00,9.7129E-03
435.00,1.6939E-02
440.00,2.7698E-02
445.00,4.5555E-02
450.00,6.1324E-02
455.00,5.3929E-02
460.00,3.7211E-02
465.00,2.8863E-02
470.00,2.2652E-02
475.00,1.7544E-02
480.00,1.5529E-02
485.00,1.5696E-02
490.00,1.7240E-02
495.00,2.0247E-02
500.00,2.4554E-02
505.00,2.9140E-02
510.00,3.3275E-02
515.00,3.6589E-02
520.00,3.9083E-02
525.00,4.1021E-02
530.00,4.2684E-02
535.00,4.4139E-02
540.00,4.5538E-02
545.00,4.6798E-02
550.00,4.7933E-02
555.00,4.9014E-02
560.00,5.0288E-02
565.00,5.1187E-02
570.00,5.2050E-02
575.00,5.2831E-02
580.00,5.3605E-02
585.00,5.4230E-02
590.00,5.4944E-02
595.00,5.5407E-02
600.00,5.5765E-02
605.00,5.6135E-02
610.00,5.6512E-02
615.00,5.6545E-02
620.00,5.6138E-02
625.00,5.5474E-02
630.00,5.4528E-02
635.00,5.3112E-02
640.00,5.1283E-02
645.00,4.9130E-02
650.00,4.6335E-02
655.00,4.3534E-02
660.00,4.0591E-02
665.00,3.7108E-02
670.00,3.3903E-02
675.00,3.0702E-02
680.00,2.7579E-02
685.00,2.4616E-02
690.00,2.1895E-02
695.00,1.9595E-02
700.00,1.7164E-02
705.00,1.5036E-02
710.00,1.3028E-02
715.00,1.1229E-02
720.00,9.8082E-03
725.00,8.3966E-03
730.00,7.3181E-03
