wavelength,intensity
380.00,2.8894E-04
385.00,2.7170E-04
390.00,3.8873E-04
395.00,1.7710E-04
400.00,4.0107E-04
405.00,5.8565E-04
410.00,5.8253E-04
415.00,9.9347E-04
420.00,1.6729E-03
425.00,3.1797E-03
430.00,5.7539E-03
435.00,1.0694E-02
440.00,1.9387E-02
445.00,3.6575E-02
450.00,5.9669E-02
455.00,6.6017E-02
460.00,4.9447E-02
465.00,3.6358E-02
470.00,2.8972E-02
475.00,2.2459E-02
480.00,1.8598E-02
485.00,1.7596E-02
490.00,1.8118E-02
495.00,2.0152E-02
500.00,2.3217E-02
505.00,2.6657E-02
510.00,2.9737E-02
515.00,3.2765E-02
520.00,3.5705E-02
525.00,3.8842E-02
530.00,4.1581E-02
535.00,4.4216E-02
540.00,4.6787E-02
545.00,4.8716E-02
550.00,5.0494E-02
555.00,5.1925E-02
560.00,5.3205E-02
565.00,5.3838E-02
570.00,5.3950E-02
575.00,5.4712E-02
580.00,5.5717E-02
585.00,5.6597E-02
590.00,5.7235E-02
595.00,5.7093E-02
600.00,5.6931E-02
605.00,5.6029E-02
610.00,5.5121E-02
615.00,5.3899E-02
620.00,5.2003E-02
625.00,4.9664E-02
630.00,4.7049E-02
635.00,4.4251E-02
640.00,4.0762E-02
645.00,3.7463E-02
650.00,3.4410E-02
655.00,3.1485E-02
660.00,2.8761E-02
665.00,2.5873E-02
670.00,2.3310E-02
675.00,2.0757E-02
680.00,1.8280E-02
685.00,1.5906E-02
690.00,1.4021E-02
695.00,1.2345E-02
700.00,1.0710E-02
705.00,9.3524E-03
710.00,7.9822E-03
715.00,6.9650E-03
720.00,6.0761E-03
725.00,5.2051E-03
730.00,4.5212E-03
