wavelength,intensity
380.00,0.0000E+00
385.00,0.0000E+00
390.00,0.0000E+00
395.00,1.4088E-05
400.00,8.0342E-05
405.00,3.1101E-04
410.00,4.8575E-04
415.00,1.0834E-03
420.00,2.4896E-03
425.00,4.8710E-03
430.00,9.2634E-03
435.00,1.6202E-02
440.00,2.7880E-02
445.00,4.5106E-02
450.00,5.5219E-02
455.00,4.3541E-02
460.00,2.9440E-02
465.00,2.2612E-02
470.00,1.7023E-02
475.00,1.3019E-02
480.00,1.1955E-02
485.00,1.1987E-02
490.00,1.3406E-02
495.00,1.6451E-02
500.00,2.0354E-02
505.00,2.4887E-02
510.00,2.9316E-02
515.00,3.3772E-02
520.00,3.7815E-02
525.00,4.1344E-02
530.00,4.4380E-02
535.00,4.6856E-02
540.00,4.8885E-02
545.00,5.0803E-02
550.00,5.2166E-02
555.00,5.3574E-02
560.00,5.4684E-02
565.00,5.5072E-02
570.00,5.5329E-02
575.00,5.5218E-02
580.00,5.5350E-02
585.00,5.4999E-02
590.00,5.4484E-02
595.00,5.4076E-02
600.00,5.3396E-02
605.00,5.2813E-02
610.00,5.2094E-02
615.00,5.1080E-02
620.00,4.9795E-02
625.00,4.8719E-02
630.00,4.7289E-02
635.00,4.5671E-02
640.00,4.3651E-02
645.00,4.1644E-02
650.00,3.9078E-02
655.00,3.6440E-02
660.00,3.3966E-02
665.00,3.1159E-02
670.00,2.8270E-02
675.00,2.5705E-02
680.00,2.2922E-02
685.00,2.0632E-02
690.00,1.8287E-02
695.00,1.6369E-02
700.00,1.4308E-02
705.00,1.2372E-02
710.00,1.0946E-02
715.00,9.3563E-03
720.00,8.2675E-03
725.00,7.0603E-03
730.00,6.2284E-03
