wavelength,intensity
380.00,0.0000E+00
385.00,0.0000E+00
390.00,0.0000E+00
395.00,0.0000E+00
400.00,0.0000E+00
405.00,0.0000E+00
410.00,0.0000E+00
415.00,0.0000E+00
420.00,0.0000E+00
425.00,9.1518E-05
430.00,3.2312E-04
435.00,4.4794E-04
440.00,1.3375E-03
445.00,2.0983E-03
450.00,2.0248E-03
455.00,1.7096E-03
460.00,1.6109E-03
465.00,1.2938E-03
470.00,9.6618E-04
475.00,6.0481E-04
480.00,5.8932E-04
485.00,4.8607E-04
490.00,2.9053E-04
495.00,2.7940E-04
500.00,3.3555E-04
505.00,3.7167E-04
510.00,7.1079E-04
515.00,1.0445E-03
520.00,1.8091E-03
525.00,2.8621E-03
530.00,4.8266E-03
535.00,7.8727E-03
540.00,1.2495E-02
545.00,1.8984E-02
550.00,2.7566E-02
555.00,3.8546E-02
560.00,5.0972E-02
565.00,6.3850E-02
570.00,7.6096E-02
575.00,8.6631E-02
580.00,9.5447E-02
585.00,1.0109E-01
590.00,1.0339E-01
595.00,1.0377E-01
600.00,1.0082E-01
605.00,9.6183E-02
610.00,9.0659E-02
615.00,8.4047E-02
620.00,7.6533E-02
625.00,6.9025E-02
630.00,6.1981E-02
635.00,5.4780E-02
640.00,4.8360E-02
645.00,4.2084E-02
650.00,3.6475E-02
655.00,3.1417E-02
660.00,2.6995E-02
665.00,2.3094E-02
670.00,1.9605E-02
675.00,1.6626E-02
680.00,1.3800E-02
685.00,1.1972E-02
690.00,9.9208E-03
695.00,8.5265E-03
700.00,7.0427E-03
705.00,5.8962E-03
710.00,4.8806E-03
715.00,4.2811E-03
720.00,3.5911E-03
725.00,3.1240E-03
730.00,2.5796E-03
