wavelength,intensity
380.00,3.9480E-05
385.00,8.4398E-05
390.00,5.7182E-05
395.00,1.2649E-04
400.00,1.6633E-04
405.00,1.8922E-04
410.00,4.3705E-04
415.00,8.3090E-04
420.00,1.8458E-03
425.00,3.8555E-03
430.00,7.3463E-03
435.00,1.2740E-02
440.00,2.1042E-02
445.00,3.2175E-02
450.00,4.0894E-02
455.00,3.6657E-02
460.00,2.4560E-02
465.00,1.6039E-02
470.00,1.1606E-02
475.00,8.3791E-03
480.00,6.3947E-03
485.00,5.5985E-03
490.00,5.6972E-03
495.00,6.7158E-03
500.00,9.3315E-03
505.00,1.3183E-02
510.00,1.8033E-02
515.00,2.3599E-02
520.00,2.9531E-02
525.00,3.5033E-02
530.00,3.9770E-02
535.00,4.4088E-02
540.00,4.7703E-02
545.00,5.0591E-02
550.00,5.2923E-02
555.00,5.4922E-02
560.00,5.6943E-02
565.00,5.7777E-02
570.00,5.8667E-02
575.00,5.9480E-02
580.00,5.9918E-02
585.00,6.0096E-02
590.00,6.0197E-02
595.00,6.0008E-02
600.00,5.9314E-02
605.00,5.8639E-02
610.00,5.7489E-02
615.00,5.6201E-02
620.00,5.4778E-02
625.00,5.2868E-02
630.00,5.0855E-02
635.00,4.8612E-02
640.00,4.6204E-02
645.00,4.3610E-02
650.00,4.0652E-02
655.00,3.7895E-02
660.00,3.4859E-02
665.00,3.2161E-02
670.00,2.9216E-02
675.00,2.6710E-02
680.00,2.4163E-02
685.00,2.1661E-02
690.00,1.9741E-02
695.00,1.7517E-02
700.00,1.5757E-02
705.00,1.4111E-02
710.00,1.2605E-02
715.00,1.1205E-02
720.00,9.8814E-03
725.00,8.6688E-03
730.00,7.5832E-03
