wavelength,intensity
380.00,0.0000E+00
385.00,0.0000E+00
390.00,0.0000E+00
395.00,0.0000E+00
400.00,0.0000E+00
405.00,0.0000E+00
410.00,0.0000E+00
415.00,4.2720E-04
420.00,1.5384E-03
425.00,3.5858E-03
430.00,6.2157E-03
435.00,8.5249E-03
440.00,1.0973E-02
445.00,1.2774E-02
450.00,1.3219E-02
455.00,1.2929E-02
460.00,1.2567E-02
465.00,1.0769E-02
470.00,1.0140E-02
475.00,9.2605E-03
480.00,9.4059E-03
485.00,1.0331E-02
490.00,1.1649E-02
495.00,1.3537E-02
500.00,1.5700E-02
505.00,1.8104E-02
510.00,2.0109E-02
515.00,2.2630E-02
520.00,2.4783E-02
525.00,2.7654E-02
530.00,3.0080E-02
535.00,3.2906E-02
540.00,3.5774E-02
545.00,3.8944E-02
550.00,4.2196E-02
555.00,4.6038E-02
560.00,4.9694E-02
565.00,5.2883E-02
570.00,5.6787E-02
575.00,5.9780E-02
580.00,6.3387E-02
585.00,6.6926E-02
590.00,6.9569E-02
595.00,7.1888E-02
600.00,7.3310E-02
605.00,7.4030E-02
610.00,7.3771E-02
615.00,7.2961E-02
620.00,7.1236E-02
625.00,6.8631E-02
630.00,6.4969E-02
635.00,6.1453E-02
640.00,5.7502E-02
645.00,5.2869E-02
650.00,4.8430E-02
655.00,4.4191E-02
660.00,3.9411E-02
665.00,3.5454E-02
670.00,3.1899E-02
675.00,2.7709E-02
680.00,2.4332E-02
685.00,2.1275E-02
690.00,1.9123E-02
695.00,1.6133E-02
700.00,1.3768E-02
705.00,1.2262E-02
710.00,1.0295E-02
715.00,8.6761E-03
720.00,7.0538E-03
725.00,6.0511E-03
730.00,4.8632E-03
