wavelength,intensity
380.00,0.0000E+00
385.00,2.8824E-04
390.00,2.9883E-06
395.00,0.0000E+00
400.00,3.9079E-04
405.00,8.8890E-05
410.00,0.0000E+00
415.00,7.3174E-04
420.00,1.6560E-03
425.00,3.7017E-03
430.00,6.6100E-03
435.00,9.7825E-03
440.00,1.3241E-02
445.00,1.7677E-02
450.00,1.8656E-02
455.00,1.4602E-02
460.00,1.0990E-02
465.00,8.8689E-03
470.00,8.0633E-03
475.00,7.0215E-03
480.00,7.0658E-03
485.00,7.8482E-03
490.00,9.5272E-03
495.00,1.2372E-02
500.00,1.5850E-02
505.00,1.9541E-02
510.00,2.2997E-02
515.00,2.5927E-02
520.00,2.8133E-02
525.00,3.0483E-02
530.00,3.2326E-02
535.00,3.3814E-02
540.00,3.5663E-02
545.00,3.7414E-02
550.00,3.9973E-02
555.00,4.2536E-02
560.00,4.6333E-02
565.00,4.9478E-02
570.00,5.3252E-02
575.00,5.6979E-02
580.00,6.2138E-02
585.00,6.6329E-02
590.00,6.9904E-02
595.00,7.3089E-02
600.00,7.5303E-02
605.00,7.6124E-02
610.00,7.6664E-02
615.00,7.6118E-02
620.00,7.4513E-02
625.00,7.0828E-02
630.00,6.8632E-02
635.00,6.4499E-02
640.00,6.0079E-02
645.00,5.5347E-02
650.00,5.0680E-02
655.00,4.6526E-02
660.00,4.1218E-02
665.00,3.6715E-02
670.00,3.3329E-02
675.00,2.8971E-02
680.00,2.5524E-02
685.00,2.2278E-02
690.00,1.9622E-02
695.00,1.7127E-02
700.00,1.4521E-02
705.00,1.2880E-02
710.00,1.0844E-02
715.00,9.1541E-03
720.00,7.8744E-03
725.00,6.8431E-03
730.00,5.7565E-03
