wavelength,intensity
380.00,8.4836E-05
385.00,6.8605E-04
390.00,7.2133E-04
395.00,0.0000E+00
400.00,4.3734E-03
405.00,1.4665E-02
410.00,9.2519E-03
415.00,2.1457E-02
420.00,1.2403E-02
425.00,2.6299E-02
430.00,1.8503E-02
435.00,5.3082E-02
440.00,2.2750E-02
445.00,1.2927E-02
450.00,1.4693E-02
455.00,1.7053E-02
460.00,1.3840E-02
465.00,1.0635E-02
470.00,2.0744E-02
475.00,5.5418E-02
480.00,1.1914E-02
485.00,2.0129E-02
490.00,1.3383E-02
495.00,1.7211E-02
500.00,1.6555E-02
505.00,1.9600E-02
510.00,7.4165E-02
515.00,1.3293E-02
520.00,1.6496E-02
525.00,1.3566E-02
530.00,1.2196E-02
535.00,6.5708E-02
540.00,2.1090E-02
545.00,9.1318E-02
550.00,2.6625E-02
555.00,1.9804E-02
560.00,1.5843E-02
565.00,2.1765E-02
570.00,1.1386E-01
575.00,2.2484E-02
580.00,3.5412E-02
585.00,1.3732E-02
590.00,3.2738E-01
595.00,9.9414E-02
600.00,5.3069E-02
605.00,3.1685E-02
610.00,2.5633E-02
615.00,3.0929E-02
620.00,4.2583E-02
625.00,5.4889E-02
630.00,5.4074E-02
635.00,1.4659E-02
640.00,1.4992E-02
645.00,1.5596E-02
650.00,8.7116E-03
655.00,8.9051E-03
660.00,1.2769E-02
665.00,7.7755E-03
670.00,3.9690E-02
675.00,1.0832E-02
680.00,8.7557E-03
685.00,7.4988E-03
690.00,6.3761E-03
695.00,7.9871E-03
700.00,7.9853E-03
705.00,4.0310E-03
710.00,4.3923E-03
715.00,4.5609E-03
720.00,4.8494E-03
725.00,3.0393E-03
730.00,2.9163E-03
