wavelength,intensity
380.00,1.1651E-03
385.00,1.0048E-03
390.00,9.7318E-04
395.00,7.4232E-04
400.00,1.7759E-03
405.00,3.3548E-02
410.00,2.4436E-03
415.00,3.4495E-03
420.00,4.3429E-03
425.00,3.9229E-03
430.00,5.0399E-03
435.00,1.1402E-01
440.00,6.6771E-03
445.00,5.5900E-03
450.00,6.3717E-03
455.00,5.3731E-03
460.00,5.4486E-03
465.00,5.4417E-03
470.00,4.4890E-03
475.00,5.2540E-03
480.00,6.5585E-03
485.00,2.9316E-02
490.00,2.7341E-02
495.00,1.6681E-02
500.00,8.4584E-03
505.00,4.9681E-03
510.00,4.3874E-03
515.00,4.4216E-03
520.00,3.9826E-03
525.00,3.7817E-03
530.00,4.7248E-03
535.00,1.0587E-02
540.00,1.0575E-01
545.00,2.5485E-01
550.00,7.3602E-02
555.00,1.7555E-02
560.00,7.5756E-03
565.00,5.6623E-03
570.00,4.4812E-03
575.00,7.2902E-03
580.00,4.3118E-02
585.00,4.5739E-02
590.00,3.2221E-02
595.00,3.3455E-02
600.00,4.5258E-02
605.00,2.3674E-02
610.00,3.6007E-01
615.00,1.6714E-01
620.00,4.0536E-02
625.00,5.4751E-02
630.00,7.6646E-02
635.00,1.2441E-02
640.00,7.6243E-03
645.00,8.1720E-03
650.00,2.3215E-02
655.00,9.1174E-03
660.00,6.3166E-03
665.00,6.0668E-03
670.00,4.3744E-03
675.00,4.4430E-03
680.00,4.4465E-03
685.00,4.5182E-03
690.00,5.0728E-03
695.00,1.9071E-02
700.00,1.7525E-03
705.00,1.5926E-02
710.00,2.6826E-02
715.00,9.2592E-03
720.00,1.0508E-03
725.00,1.2593E-03
730.00,2.0803E-03
