wavelength,intensity
380.00,7.3217E-04
385.00,3.7889E-04
390.00,3.7887E-04
395.00,3.3014E-04
400.00,1.2659E-03
405.00,9.7532E-02
410.00,2.3555E-03
415.00,2.2038E-03
420.00,2.7355E-03
425.00,3.5497E-03
430.00,4.7164E-03
435.00,1.6435E-01
440.00,6.5078E-03
445.00,5.6231E-03
450.00,5.1068E-03
455.00,4.8837E-03
460.00,4.4311E-03
465.00,4.0169E-03
470.00,3.4140E-03
475.00,3.6097E-03
480.00,5.4022E-03
485.00,2.9108E-02
490.00,2.7241E-02
495.00,1.6348E-02
500.00,8.4587E-03
505.00,4.1160E-03
510.00,3.4365E-03
515.00,3.2266E-03
520.00,3.0169E-03
525.00,3.0204E-03
530.00,3.7842E-03
535.00,1.0471E-02
540.00,1.0117E-01
545.00,2.6585E-01
550.00,7.6640E-02
555.00,1.8267E-02
560.00,7.1699E-03
565.00,5.2375E-03
570.00,4.1994E-03
575.00,7.6933E-03
580.00,5.5627E-02
585.00,4.6267E-02
590.00,3.2479E-02
595.00,3.5117E-02
600.00,4.8594E-02
605.00,2.3874E-02
610.00,2.9965E-01
615.00,1.8612E-01
620.00,4.1310E-02
625.00,5.3844E-02
630.00,7.9405E-02
635.00,1.3017E-02
640.00,7.6099E-03
645.00,7.9135E-03
650.00,2.2650E-02
655.00,7.9618E-03
660.00,5.3842E-03
665.00,5.5318E-03
670.00,4.2807E-03
675.00,3.0162E-03
680.00,3.3311E-03
685.00,4.0354E-03
690.00,4.7462E-03
695.00,5.3996E-03
700.00,1.4218E-03
705.00,1.1267E-02
710.00,2.7034E-02
715.00,2.2366E-03
720.00,5.6583E-04
725.00,8.2113E-05
730.00,4.4943E-04
