wavelength,intensity
380.00,1.7389E-03
385.00,9.5013E-04
390.00,7.2952E-04
395.00,6.7307E-04
400.00,1.2258E-03
405.00,8.1222E-02
410.00,2.1735E-03
415.00,2.1495E-03
420.00,2.0239E-03
425.00,2.7517E-03
430.00,3.4389E-03
435.00,1.5711E-01
440.00,5.2745E-03
445.00,3.9056E-03
450.00,3.6543E-03
455.00,3.1488E-03
460.00,2.9492E-03
465.00,2.8418E-03
470.00,2.5360E-03
475.00,2.9611E-03
480.00,5.3068E-03
485.00,3.3981E-02
490.00,3.1036E-02
495.00,1.8668E-02
500.00,9.1857E-03
505.00,4.3184E-03
510.00,3.6354E-03
515.00,3.3544E-03
520.00,3.2105E-03
525.00,3.2619E-03
530.00,4.2920E-03
535.00,1.1884E-02
540.00,1.1800E-01
545.00,2.2162E-01
550.00,8.9083E-02
555.00,2.1479E-02
560.00,8.2837E-03
565.00,5.8515E-03
570.00,4.6658E-03
575.00,7.8397E-03
580.00,5.4302E-02
585.00,5.2783E-02
590.00,3.6349E-02
595.00,3.8816E-02
600.00,5.3454E-02
605.00,2.5883E-02
610.00,2.5757E-01
615.00,2.0062E-01
620.00,4.5721E-02
625.00,6.0033E-02
630.00,8.6127E-02
635.00,1.4109E-02
640.00,8.7401E-03
645.00,8.8390E-03
650.00,2.4772E-02
655.00,9.0446E-03
660.00,6.2114E-03
665.00,6.7294E-03
670.00,5.0690E-03
675.00,3.6325E-03
680.00,4.7155E-03
685.00,4.7481E-03
690.00,5.4491E-03
695.00,5.9728E-03
700.00,1.9322E-03
705.00,1.2453E-02
710.00,2.9798E-02
715.00,3.0202E-03
720.00,9.2160E-04
725.00,4.5430E-04
730.00,1.0614E-03
