wavelength,intensity
380.00,1.7192E-03
385.00,1.1510E-03
390.00,1.1660E-03
395.00,1.1172E-03
400.00,1.8966E-03
405.00,1.0234E-01
410.00,2.9401E-03
415.00,2.8052E-03
420.00,3.1603E-03
425.00,3.8309E-03
430.00,4.8724E-03
435.00,1.9272E-01
440.00,6.9683E-03
445.00,4.9758E-03
450.00,4.5118E-03
455.00,4.0758E-03
460.00,3.6565E-03
465.00,3.7245E-03
470.00,3.1448E-03
475.00,3.6002E-03
480.00,6.1012E-03
485.00,3.6967E-02
490.00,3.4714E-02
495.00,2.0726E-02
500.00,1.0536E-02
505.00,4.9220E-03
510.00,4.3805E-03
515.00,4.0490E-03
520.00,3.8182E-03
525.00,3.8429E-03
530.00,4.9859E-03
535.00,1.3485E-02
540.00,1.2009E-01
545.00,1.7165E-01
550.00,9.8157E-02
555.00,2.3816E-02
560.00,9.3921E-03
565.00,6.6319E-03
570.00,5.3516E-03
575.00,9.2677E-03
580.00,6.3817E-02
585.00,5.8630E-02
590.00,4.1396E-02
595.00,4.4719E-02
600.00,6.1191E-02
605.00,3.0482E-02
610.00,2.2029E-01
615.00,2.0929E-01
620.00,5.2035E-02
625.00,6.7694E-02
630.00,9.9463E-02
635.00,1.6775E-02
640.00,1.0088E-02
645.00,1.0259E-02
650.00,2.8394E-02
655.00,1.0546E-02
660.00,7.1959E-03
665.00,7.6385E-03
670.00,5.7803E-03
675.00,4.3839E-03
680.00,5.2287E-03
685.00,5.4652E-03
690.00,6.8111E-03
695.00,7.0809E-03
700.00,2.2875E-03
705.00,1.4945E-02
710.00,3.4429E-02
715.00,3.9039E-03
720.00,1.3229E-03
725.00,8.4898E-04
730.00,1.4109E-03
