wavelength,intensity
380.00,4.9406E-04
385.00,1.8409E-04
390.00,0.0000E+00
395.00,7.0007E-05
400.00,3.4397E-04
405.00,4.4592E-02
410.00,1.8669E-03
415.00,3.9086E-03
420.00,6.4921E-03
425.00,8.7565E-03
430.00,1.1813E-02
435.00,1.3973E-01
440.00,1.9425E-02
445.00,2.0668E-02
450.00,2.1469E-02
455.00,2.1574E-02
460.00,2.0821E-02
465.00,1.9777E-02
470.00,1.7342E-02
475.00,1.5796E-02
480.00,1.5940E-02
485.00,4.3059E-02
490.00,3.9216E-02
495.00,2.4834E-02
500.00,1.5280E-02
505.00,1.1486E-02
510.00,1.3139E-02
515.00,1.3636E-02
520.00,1.2186E-02
525.00,1.0162E-02
530.00,9.5621E-03
535.00,1.4387E-02
540.00,1.2145E-01
545.00,2.7760E-01
550.00,8.8405E-02
555.00,2.0420E-02
560.00,8.1266E-03
565.00,5.1978E-03
570.00,3.8397E-03
575.00,5.5949E-03
580.00,3.7574E-02
585.00,4.7228E-02
590.00,2.8780E-02
595.00,2.7111E-02
600.00,3.7142E-02
605.00,1.5981E-02
610.00,2.4756E-01
615.00,1.3412E-01
620.00,3.6025E-02
625.00,4.8169E-02
630.00,5.7470E-02
635.00,9.0360E-03
640.00,5.6074E-03
645.00,6.5488E-03
650.00,1.7830E-02
655.00,7.0031E-03
660.00,4.3030E-03
665.00,4.7902E-03
670.00,3.9702E-03
675.00,3.3145E-03
680.00,3.4639E-03
685.00,3.7394E-03
690.00,2.6214E-03
695.00,7.0660E-03
700.00,9.0855E-04
705.00,9.4043E-03
710.00,2.0712E-02
715.00,4.3675E-03
720.00,4.7585E-04
725.00,0.0000E+00
730.00,4.6060E-04
