wavelength,intensity
380.00,2.7343E-04
385.00,0.0000E+00
390.00,3.7839E-03
395.00,0.0000E+00
400.00,3.7264E-03
405.00,4.7311E-02
410.00,6.4253E-03
415.00,4.1997E-03
420.00,1.2390E-02
425.00,1.3426E-02
430.00,2.0285E-02
435.00,1.9346E-01
440.00,2.8975E-02
445.00,3.3983E-02
450.00,3.4212E-02
455.00,3.0912E-02
460.00,3.0660E-02
465.00,2.7952E-02
470.00,2.6893E-02
475.00,2.5177E-02
480.00,2.7598E-02
485.00,4.5437E-02
490.00,4.3938E-02
495.00,2.9032E-02
500.00,1.8769E-02
505.00,1.6028E-02
510.00,1.5330E-02
515.00,1.8341E-02
520.00,1.4833E-02
525.00,1.4338E-02
530.00,1.1816E-02
535.00,1.6537E-02
540.00,1.2102E-01
545.00,2.7862E-01
550.00,8.5064E-02
555.00,2.0510E-02
560.00,8.9500E-03
565.00,8.1483E-03
570.00,3.5090E-03
575.00,8.0030E-03
580.00,4.1231E-02
585.00,4.5914E-02
590.00,2.9008E-02
595.00,2.3019E-02
600.00,3.4332E-02
605.00,1.4577E-02
610.00,2.1356E-01
615.00,1.1243E-01
620.00,3.6901E-02
625.00,4.6650E-02
630.00,4.8294E-02
635.00,1.1143E-02
640.00,8.4370E-03
645.00,8.6195E-03
650.00,2.0416E-02
655.00,6.6612E-03
660.00,7.8802E-03
665.00,7.8635E-03
670.00,4.3020E-03
675.00,4.1312E-03
680.00,5.6305E-03
685.00,4.5152E-03
690.00,5.2378E-03
695.00,3.3166E-03
700.00,2.8219E-03
705.00,1.1685E-02
710.00,1.8202E-02
715.00,5.8753E-03
720.00,4.1917E-03
725.00,2.8116E-03
730.00,4.6782E-03
