wavelength,intensity
380.00,4.0371E-04
385.00,3.6584E-04
390.00,1.9337E-03
395.00,0.0000E+00
400.00,1.1753E-03
405.00,5.4224E-02
410.00,7.4650E-03
415.00,4.6229E-03
420.00,1.3351E-02
425.00,1.5927E-02
430.00,1.9787E-02
435.00,1.9822E-01
440.00,2.7044E-02
445.00,2.8887E-02
450.00,2.9772E-02
455.00,3.2365E-02
460.00,3.0321E-02
465.00,2.7116E-02
470.00,2.4455E-02
475.00,2.1988E-02
480.00,2.3465E-02
485.00,4.4685E-02
490.00,4.1416E-02
495.00,2.8813E-02
500.00,1.8021E-02
505.00,1.5677E-02
510.00,1.6501E-02
515.00,1.7110E-02
520.00,1.5103E-02
525.00,1.3992E-02
530.00,1.2395E-02
535.00,1.6358E-02
540.00,1.1794E-01
545.00,2.7819E-01
550.00,8.4235E-02
555.00,2.0687E-02
560.00,9.2603E-03
565.00,6.7843E-03
570.00,5.8345E-03
575.00,9.4575E-03
580.00,4.2798E-02
585.00,4.7179E-02
590.00,2.9885E-02
595.00,2.4460E-02
600.00,3.1915E-02
605.00,1.4744E-02
610.00,2.1676E-01
615.00,1.1380E-01
620.00,3.7454E-02
625.00,4.6563E-02
630.00,4.8565E-02
635.00,1.0926E-02
640.00,5.4918E-03
645.00,7.7864E-03
650.00,1.7354E-02
655.00,7.6810E-03
660.00,5.2318E-03
665.00,6.5719E-03
670.00,7.3485E-03
675.00,0.0000E+00
680.00,2.6212E-03
685.00,4.2407E-03
690.00,3.2406E-03
695.00,5.5461E-03
700.00,2.4249E-03
705.00,8.4504E-03
710.00,2.2730E-02
715.00,7.2653E-03
720.00,0.0000E+00
725.00,2.2684E-03
730.00,6.7316E-03
