wavelength,intensity
380.00,9.8449E-03
385.00,9.9396E-03
390.00,9.6435E-03
395.00,9.7584E-03
400.00,1.0018E-02
405.00,3.1360E-02
410.00,1.1640E-02
415.00,1.2763E-02
420.00,1.4500E-02
425.00,1.7022E-02
430.00,2.0443E-02
435.00,1.4739E-01
440.00,2.5502E-02
445.00,2.5687E-02
450.00,2.6118E-02
455.00,2.6205E-02
460.00,2.5902E-02
465.00,2.5064E-02
470.00,2.3376E-02
475.00,2.1754E-02
480.00,2.1915E-02
485.00,4.9667E-02
490.00,4.6754E-02
495.00,3.1283E-02
500.00,2.0015E-02
505.00,1.5077E-02
510.00,1.5038E-02
515.00,1.4845E-02
520.00,1.3660E-02
525.00,1.2721E-02
530.00,1.2747E-02
535.00,1.8686E-02
540.00,1.2272E-01
545.00,1.9865E-01
550.00,9.5058E-02
555.00,2.6376E-02
560.00,1.3887E-02
565.00,1.1071E-02
570.00,9.5962E-03
575.00,1.2419E-02
580.00,4.7630E-02
585.00,5.2896E-02
590.00,3.5022E-02
595.00,3.2394E-02
600.00,3.9711E-02
605.00,2.2807E-02
610.00,1.9388E-01
615.00,1.3524E-01
620.00,4.5163E-02
625.00,5.5934E-02
630.00,6.3973E-02
635.00,1.7567E-02
640.00,1.4137E-02
645.00,1.5090E-02
650.00,2.6444E-02
655.00,1.6871E-02
660.00,1.4023E-02
665.00,1.5064E-02
670.00,1.4077E-02
675.00,1.3377E-02
680.00,1.5094E-02
685.00,1.5024E-02
690.00,1.5446E-02
695.00,1.6012E-02
700.00,1.3020E-02
705.00,2.1545E-02
710.00,3.6095E-02
715.00,1.5172E-02
720.00,1.4158E-02
725.00,1.4503E-02
730.00,1.5084E-02
