wavelength,intensity
380.00,0.0000E+00
385.00,2.6502E-03
390.00,0.0000E+00
395.00,0.0000E+00
400.00,9.5709E-03
405.00,2.2023E-01
410.00,2.9611E-02
415.00,0.0000E+00
420.00,5.2420E-03
425.00,3.4137E-02
430.00,5.7987E-02
435.00,5.5381E-01
440.00,7.8375E-02
445.00,9.0255E-02
450.00,9.4234E-02
455.00,7.3204E-02
460.00,8.4574E-02
465.00,8.8061E-02
470.00,7.0465E-02
475.00,5.0458E-02
480.00,4.4264E-02
485.00,9.6383E-02
490.00,8.4061E-02
495.00,6.7406E-02
500.00,3.6085E-02
505.00,2.9299E-02
510.00,3.3938E-02
515.00,1.9376E-02
520.00,1.1537E-02
525.00,5.9809E-03
530.00,1.7049E-02
535.00,2.0732E-02
540.00,1.3050E-01
545.00,3.4932E-01
550.00,8.2477E-02
555.00,7.9612E-03
560.00,1.4951E-02
565.00,8.6276E-03
570.00,5.0622E-03
575.00,0.0000E+00
580.00,4.2123E-02
585.00,1.8927E-02
590.00,7.4867E-03
595.00,1.5782E-02
600.00,1.3589E-02
605.00,0.0000E+00
610.00,1.5116E-01
615.00,5.9433E-02
620.00,1.8293E-03
625.00,3.0301E-02
630.00,2.9471E-02
635.00,0.0000E+00
640.00,0.0000E+00
645.00,0.0000E+00
650.00,1.4781E-03
655.00,0.0000E+00
660.00,0.0000E+00
665.00,0.0000E+00
670.00,0.0000E+00
675.00,0.0000E+00
680.00,0.0000E+00
685.00,0.0000E+00
690.00,2.1574E-02
695.00,0.0000E+00
700.00,0.0000E+00
705.00,0.0000E+00
710.00,1.9572E-02
715.00,0.0000E+00
720.00,0.0000E+00
725.00,1.0818E-03
730.00,0.0000E+00
