wavelength,intensity
380.00,1.4940E-03
385.00,1.0168E-03
390.00,6.1151E-04
395.00,5.8546E-04
400.00,1.2543E-03
405.00,8.1304E-02
410.00,1.9109E-03
415.00,1.5976E-03
420.00,1.5040E-03
425.00,2.0532E-03
430.00,2.6599E-03
435.00,1.7115E-01
440.00,4.2261E-03
445.00,2.8229E-03
450.00,2.4686E-03
455.00,2.0858E-03
460.00,2.0095E-03
465.00,2.0025E-03
470.00,1.7273E-03
475.00,2.2270E-03
480.00,4.5653E-03
485.00,3.1534E-02
490.00,2.9493E-02
495.00,1.7073E-02
500.00,8.2479E-03
505.00,3.1534E-03
510.00,2.4035E-03
515.00,2.0386E-03
520.00,1.9799E-03
525.00,2.3208E-03
530.00,3.5181E-03
535.00,1.1028E-02
540.00,1.1126E-01
545.00,2.4460E-01
550.00,8.3451E-02
555.00,1.9834E-02
560.00,7.7432E-03
565.00,5.4443E-03
570.00,4.4162E-03
575.00,7.6581E-03
580.00,5.4978E-02
585.00,4.9911E-02
590.00,3.4597E-02
595.00,3.7580E-02
600.00,4.9909E-02
605.00,2.5160E-02
610.00,2.8147E-01
615.00,1.9327E-01
620.00,4.4369E-02
625.00,5.7359E-02
630.00,8.1408E-02
635.00,1.3847E-02
640.00,8.1365E-03
645.00,8.3634E-03
650.00,2.3589E-02
655.00,8.6608E-03
660.00,5.5688E-03
665.00,6.2716E-03
670.00,4.7689E-03
675.00,3.3372E-03
680.00,4.2483E-03
685.00,4.4093E-03
690.00,5.2152E-03
695.00,5.5198E-03
700.00,1.7190E-03
705.00,1.2218E-02
710.00,2.9307E-02
715.00,2.8298E-03
720.00,5.0981E-04
725.00,9.9948E-05
730.00,8.1683E-04
