wavelength,intensity
380.00,0.0000E+00
385.00,0.0000E+00
390.00,0.0000E+00
395.00,0.0000E+00
400.00,0.0000E+00
405.00,0.0000E+00
410.00,0.0000E+00
415.00,0.0000E+00
420.00,3.4337E-05
425.00,0.0000E+00
430.00,0.0000E+00
435.00,1.5775E-03
440.00,0.0000E+00
445.00,0.0000E+00
450.00,0.0000E+00
455.00,0.0000E+00
460.00,0.0000E+00
465.00,1.8399E-05
470.00,0.0000E+00
475.00,0.0000E+00
480.00,0.0000E+00
485.00,0.0000E+00
490.00,1.2231E-03
495.00,0.0000E+00
500.00,0.0000E+00
505.00,0.0000E+00
510.00,0.0000E+00
515.00,0.0000E+00
520.00,0.0000E+00
525.00,0.0000E+00
530.00,4.0511E-04
535.00,6.2095E-03
540.00,7.8513E-02
545.00,2.4668E-01
550.00,7.9389E-02
555.00,2.0263E-02
560.00,1.1847E-02
565.00,2.5114E-03
570.00,6.0327E-03
575.00,2.7007E-03
580.00,6.2333E-02
585.00,6.0047E-02
590.00,4.2486E-02
595.00,4.0798E-02
600.00,4.9552E-02
605.00,1.4371E-02
610.00,3.7264E-01
615.00,2.0199E-01
620.00,5.0079E-02
625.00,6.8086E-02
630.00,9.5970E-02
635.00,1.7369E-02
640.00,8.4340E-03
645.00,6.1364E-03
650.00,2.5455E-02
655.00,0.0000E+00
660.00,0.0000E+00
665.00,2.6365E-03
670.00,0.0000E+00
675.00,0.0000E+00
680.00,0.0000E+00
685.00,2.1920E-03
690.00,9.5837E-03
695.00,3.4808E-03
700.00,0.0000E+00
705.00,5.8529E-03
710.00,2.5429E-02
715.00,0.0000E+00
720.00,0.0000E+00
725.00,0.0000E+00
730.00,0.0000E+00
