wavelength,intensity
380.00,1.8922E-04
385.00,0.0000E+00
390.00,0.0000E+00
395.00,0.0000E+00
400.00,0.0000E+00
405.00,6.0672E-02
410.00,4.6786E-04
415.00,0.0000E+00
420.00,0.0000E+00
425.00,0.0000E+00
430.00,1.5851E-04
435.00,1.5034E-01
440.00,8.8598E-04
445.00,0.0000E+00
450.00,2.2305E-05
455.00,0.0000E+00
460.00,0.0000E+00
465.00,0.0000E+00
470.00,0.0000E+00
475.00,1.9926E-04
480.00,2.6825E-03
485.00,2.5645E-02
490.00,2.7839E-02
495.00,1.5271E-02
500.00,6.8785E-03
505.00,1.5635E-03
510.00,1.0587E-03
515.00,6.4234E-04
520.00,1.8703E-05
525.00,1.2660E-03
530.00,2.2212E-03
535.00,9.1489E-03
540.00,1.0390E-01
545.00,2.8272E-01
550.00,7.8575E-02
555.00,1.7040E-02
560.00,6.6183E-03
565.00,4.9017E-03
570.00,3.0308E-03
575.00,8.0084E-03
580.00,5.0865E-02
585.00,4.5492E-02
590.00,3.2561E-02
595.00,3.3568E-02
600.00,4.4542E-02
605.00,2.2942E-02
610.00,3.2860E-01
615.00,1.6837E-01
620.00,4.2368E-02
625.00,5.4607E-02
630.00,7.3989E-02
635.00,1.2942E-02
640.00,6.4325E-03
645.00,6.5184E-03
650.00,2.2616E-02
655.00,7.6943E-03
660.00,4.2905E-03
665.00,6.8211E-03
670.00,4.5633E-03
675.00,1.1597E-03
680.00,1.2386E-03
685.00,4.5500E-03
690.00,1.9327E-03
695.00,2.7785E-03
700.00,0.0000E+00
705.00,1.0497E-02
710.00,2.5563E-02
715.00,1.1996E-03
720.00,0.0000E+00
725.00,0.0000E+00
730.00,0.0000E+00
