wavelength,intensity
380.00,0.0000E+00
385.00,0.0000E+00
390.00,0.0000E+00
395.00,0.0000E+00
400.00,0.0000E+00
405.00,2.9261E-02
410.00,0.0000E+00
415.00,0.0000E+00
420.00,0.0000E+00
425.00,0.0000E+00
430.00,0.0000E+00
435.00,9.0001E-02
440.00,0.0000E+00
445.00,1.2094E-03
450.00,0.0000E+00
455.00,0.0000E+00
460.00,0.0000E+00
465.00,0.0000E+00
470.00,1.6217E-04
475.00,0.0000E+00
480.00,5.9134E-03
485.00,2.7294E-02
490.00,2.5524E-02
495.00,1.4464E-02
500.00,4.3959E-03
505.00,1.0863E-04
510.00,1.4228E-03
515.00,1.0541E-03
520.00,0.0000E+00
525.00,1.9615E-04
530.00,3.2120E-03
535.00,6.4297E-03
540.00,1.0821E-01
545.00,2.6580E-01
550.00,7.9459E-02
555.00,1.3319E-02
560.00,5.1288E-03
565.00,4.0628E-03
570.00,0.0000E+00
575.00,3.7371E-03
580.00,4.4505E-02
585.00,4.8121E-02
590.00,3.1130E-02
595.00,3.6404E-02
600.00,4.7446E-02
605.00,2.2573E-02
610.00,3.7749E-01
615.00,1.8400E-01
620.00,4.1741E-02
625.00,5.6799E-02
630.00,7.9553E-02
635.00,1.3715E-02
640.00,7.5235E-05
645.00,3.4709E-03
650.00,1.9932E-02
655.00,3.6997E-03
660.00,1.7473E-03
665.00,2.2779E-03
670.00,0.0000E+00
675.00,0.0000E+00
680.00,0.0000E+00
685.00,5.9026E-04
690.00,0.0000E+00
695.00,4.8628E-04
700.00,0.0000E+00
705.00,6.3640E-03
710.00,2.5023E-02
715.00,6.1410E-04
720.00,0.0000E+00
725.00,0.0000E+00
730.00,0.0000E+00
