wavelength,intensity
380.00,5.9346E-04
385.00,0.0000E+00
390.00,0.0000E+00
395.00,0.0000E+00
400.00,0.0000E+00
405.00,5.6926E-02
410.00,0.0000E+00
415.00,1.7782E-04
420.00,2.0663E-03
425.00,1.1709E-03
430.00,3.3349E-03
435.00,1.8517E-01
440.00,3.1641E-03
445.00,4.0778E-03
450.00,1.8061E-03
455.00,1.3434E-03
460.00,1.3987E-03
465.00,8.8235E-04
470.00,2.5170E-03
475.00,2.9662E-03
480.00,6.0400E-03
485.00,2.9999E-02
490.00,2.7670E-02
495.00,1.6829E-02
500.00,7.2169E-03
505.00,2.9389E-03
510.00,1.7029E-03
515.00,2.3926E-03
520.00,1.3029E-03
525.00,2.6530E-03
530.00,3.0100E-03
535.00,9.3682E-03
540.00,1.0613E-01
545.00,2.6395E-01
550.00,7.4485E-02
555.00,1.7530E-02
560.00,6.5192E-03
565.00,5.0888E-03
570.00,3.0873E-03
575.00,6.9125E-03
580.00,4.6878E-02
585.00,4.6394E-02
590.00,3.1281E-02
595.00,3.2680E-02
600.00,4.9033E-02
605.00,2.1874E-02
610.00,3.5140E-01
615.00,1.7598E-01
620.00,4.0295E-02
625.00,5.2527E-02
630.00,7.6064E-02
635.00,1.2945E-02
640.00,6.9313E-03
645.00,6.1195E-03
650.00,2.3386E-02
655.00,7.3498E-03
660.00,3.6228E-03
665.00,5.7044E-03
670.00,3.4375E-03
675.00,1.4603E-03
680.00,3.0856E-03
685.00,2.5108E-03
690.00,3.7026E-03
695.00,3.7026E-03
700.00,1.0440E-05
705.00,1.1208E-02
710.00,2.6208E-02
715.00,3.0151E-03
720.00,0.0000E+00
725.00,0.0000E+00
730.00,0.0000E+00
