wavelength,intensity
380.00,2.0814E-03
385.00,1.0488E-03
390.00,1.4080E-03
395.00,1.8016E-03
400.00,4.5179E-03
405.00,4.4260E-02
410.00,6.3294E-03
415.00,7.4381E-03
420.00,7.4914E-03
425.00,1.2741E-02
430.00,1.4111E-02
435.00,1.7004E-01
440.00,1.8462E-02
445.00,2.4721E-02
450.00,2.4395E-02
455.00,1.9818E-02
460.00,2.4240E-02
465.00,2.1672E-02
470.00,1.7903E-02
475.00,1.9719E-02
480.00,1.8801E-02
485.00,4.1658E-02
490.00,3.7328E-02
495.00,2.6066E-02
500.00,1.4951E-02
505.00,1.0689E-02
510.00,1.2068E-02
515.00,1.2568E-02
520.00,1.0345E-02
525.00,9.3358E-03
530.00,1.0773E-02
535.00,1.4646E-02
540.00,1.1285E-01
545.00,2.7795E-01
550.00,8.1846E-02
555.00,1.8232E-02
560.00,8.6083E-03
565.00,8.8513E-03
570.00,4.6802E-03
575.00,1.0563E-02
580.00,4.2336E-02
585.00,4.8155E-02
590.00,3.1045E-02
595.00,2.7377E-02
600.00,3.8508E-02
605.00,1.5152E-02
610.00,2.4901E-01
615.00,1.2589E-01
620.00,3.8570E-02
625.00,4.9586E-02
630.00,5.7688E-02
635.00,1.1803E-02
640.00,5.6192E-03
645.00,6.4540E-03
650.00,2.0438E-02
655.00,1.0355E-02
660.00,4.1336E-03
665.00,8.2897E-03
670.00,5.7934E-03
675.00,1.6816E-05
680.00,5.9141E-03
685.00,5.6394E-03
690.00,1.7209E-03
695.00,9.6727E-03
700.00,1.7402E-03
705.00,8.7462E-03
710.00,2.1046E-02
715.00,1.0330E-02
720.00,7.6440E-03
725.00,2.5725E-03
730.00,7.1405E-03
