wavelength,intensity
380.00,9.9410E-04
385.00,2.8383E-04
390.00,8.1320E-04
395.00,7.6331E-04
400.00,1.8306E-03
405.00,6.8501E-02
410.00,2.4166E-03
415.00,2.0079E-03
420.00,2.6034E-03
425.00,2.9783E-03
430.00,3.9617E-03
435.00,1.6301E-01
440.00,5.1665E-03
445.00,4.3118E-03
450.00,3.3452E-03
455.00,3.4161E-03
460.00,3.2135E-03
465.00,3.3379E-03
470.00,3.3109E-03
475.00,3.3374E-03
480.00,5.9294E-03
485.00,2.9438E-02
490.00,2.7427E-02
495.00,1.6658E-02
500.00,8.2936E-03
505.00,3.6677E-03
510.00,2.9256E-03
515.00,2.7963E-03
520.00,2.1020E-03
525.00,2.6649E-03
530.00,4.1335E-03
535.00,1.0283E-02
540.00,1.0745E-01
545.00,2.8065E-01
550.00,7.5822E-02
555.00,1.8695E-02
560.00,7.6298E-03
565.00,5.4113E-03
570.00,4.1847E-03
575.00,8.4332E-03
580.00,4.7420E-02
585.00,4.6366E-02
590.00,3.1920E-02
595.00,3.1578E-02
600.00,4.3207E-02
605.00,2.2050E-02
610.00,3.1928E-01
615.00,1.6040E-01
620.00,3.9955E-02
625.00,5.0978E-02
630.00,7.1462E-02
635.00,1.2200E-02
640.00,7.5441E-03
645.00,8.4405E-03
650.00,2.1906E-02
655.00,8.3580E-03
660.00,5.7479E-03
665.00,6.3148E-03
670.00,5.0072E-03
675.00,3.3519E-03
680.00,4.2641E-03
685.00,5.0023E-03
690.00,4.7571E-03
695.00,4.9618E-03
700.00,1.8498E-03
705.00,1.1415E-02
710.00,2.5188E-02
715.00,3.2277E-03
720.00,5.7596E-04
725.00,1.1533E-03
730.00,9.8721E-04
