wavelength,intensity
380.00,1.4821E-03
385.00,1.0814E-03
390.00,1.1938E-03
395.00,1.4215E-03
400.00,2.4874E-03
405.00,9.2950E-02
410.00,5.7841E-03
415.00,7.7961E-03
420.00,1.1651E-02
425.00,1.6261E-02
430.00,2.2160E-02
435.00,1.8362E-01
440.00,3.1930E-02
445.00,3.2556E-02
450.00,3.3288E-02
455.00,3.2581E-02
460.00,3.1213E-02
465.00,2.7995E-02
470.00,2.5948E-02
475.00,2.3454E-02
480.00,2.4273E-02
485.00,5.9285E-02
490.00,5.4271E-02
495.00,3.5590E-02
500.00,2.1850E-02
505.00,1.5318E-02
510.00,1.4677E-02
515.00,1.4362E-02
520.00,1.2855E-02
525.00,1.1544E-02
530.00,1.1564E-02
535.00,1.9799E-02
540.00,1.2507E-01
545.00,1.4555E-01
550.00,1.1477E-01
555.00,2.9337E-02
560.00,1.1954E-02
565.00,7.7127E-03
570.00,5.8789E-03
575.00,9.7623E-03
580.00,5.9213E-02
585.00,6.4839E-02
590.00,4.0348E-02
595.00,3.5700E-02
600.00,4.4100E-02
605.00,2.2542E-02
610.00,1.7939E-01
615.00,1.5891E-01
620.00,4.9168E-02
625.00,6.1358E-02
630.00,7.2476E-02
635.00,1.2995E-02
640.00,8.1912E-03
645.00,8.7525E-03
650.00,2.1575E-02
655.00,9.7787E-03
660.00,6.8444E-03
665.00,6.9658E-03
670.00,5.5872E-03
675.00,4.5898E-03
680.00,5.5219E-03
685.00,5.2349E-03
690.00,5.5618E-03
695.00,5.2739E-03
700.00,1.8586E-03
705.00,1.0626E-02
710.00,2.4424E-02
715.00,2.7918E-03
720.00,9.5999E-04
725.00,5.6427E-04
730.00,1.0652E-03
