wavelength,intensity
380.00,2.8030E-04
385.00,0.0000E+00
390.00,0.0000E+00
395.00,0.0000E+00
400.00,1.4997E-04
405.00,5.5598E-02
410.00,4.1519E-04
415.00,1.0427E-03
420.00,1.6539E-03
425.00,2.2315E-03
430.00,3.8238E-03
435.00,1.6676E-01
440.00,4.8088E-03
445.00,5.8910E-03
450.00,4.4344E-03
455.00,4.6780E-03
460.00,4.3612E-03
465.00,3.6909E-03
470.00,3.6914E-03
475.00,4.9778E-03
480.00,6.8717E-03
485.00,3.0827E-02
490.00,2.9687E-02
495.00,1.7939E-02
500.00,8.4438E-03
505.00,4.5526E-03
510.00,3.5709E-03
515.00,3.6400E-03
520.00,2.9465E-03
525.00,3.3437E-03
530.00,4.1159E-03
535.00,1.0567E-02
540.00,1.0864E-01
545.00,2.6875E-01
550.00,7.8075E-02
555.00,1.8506E-02
560.00,7.9629E-03
565.00,5.2053E-03
570.00,3.4534E-03
575.00,6.8898E-03
580.00,4.7408E-02
585.00,4.7241E-02
590.00,3.2279E-02
595.00,3.1717E-02
600.00,4.4994E-02
605.00,2.0735E-02
610.00,3.2345E-01
615.00,1.6269E-01
620.00,4.1418E-02
625.00,5.4413E-02
630.00,7.2822E-02
635.00,1.1790E-02
640.00,7.2487E-03
645.00,6.5461E-03
650.00,2.3464E-02
655.00,7.1978E-03
660.00,6.1603E-03
665.00,6.3524E-03
670.00,4.2919E-03
675.00,1.2108E-03
680.00,3.9658E-03
685.00,5.4116E-03
690.00,2.5942E-03
695.00,4.5256E-03
700.00,6.7378E-04
705.00,1.0631E-02
710.00,2.5612E-02
715.00,3.3628E-03
720.00,0.0000E+00
725.00,2.0730E-03
730.00,4.9445E-04
