wavelength,intensity
380.00,6.0476E-04
385.00,2.7862E-04
390.00,5.1196E-04
395.00,7.7111E-04
400.00,1.8454E-03
405.00,8.6960E-02
410.00,5.4969E-03
415.00,7.6845E-03
420.00,1.1205E-02
425.00,1.5717E-02
430.00,2.0730E-02
435.00,1.8841E-01
440.00,2.8207E-02
445.00,2.8000E-02
450.00,2.7649E-02
455.00,2.6127E-02
460.00,2.4182E-02
465.00,2.1009E-02
470.00,1.8772E-02
475.00,1.6721E-02
480.00,1.6375E-02
485.00,4.2996E-02
490.00,4.4602E-02
495.00,2.9362E-02
500.00,1.8384E-02
505.00,1.4893E-02
510.00,1.8518E-02
515.00,1.9737E-02
520.00,1.7091E-02
525.00,1.4525E-02
530.00,1.2782E-02
535.00,1.6779E-02
540.00,9.8429E-02
545.00,2.4047E-01
550.00,8.3536E-02
555.00,2.1139E-02
560.00,8.1422E-03
565.00,5.5482E-03
570.00,4.5389E-03
575.00,9.4590E-03
580.00,5.8862E-02
585.00,5.5252E-02
590.00,4.0566E-02
595.00,2.8036E-02
600.00,3.6639E-02
605.00,1.8177E-02
610.00,2.2123E-01
615.00,1.4135E-01
620.00,5.0479E-02
625.00,4.4770E-02
630.00,5.9592E-02
635.00,1.0082E-02
640.00,6.1534E-03
645.00,6.9524E-03
650.00,1.7971E-02
655.00,6.0949E-03
660.00,4.0278E-03
665.00,5.2323E-03
670.00,4.4507E-03
675.00,3.2942E-03
680.00,4.2038E-03
685.00,3.0986E-03
690.00,3.7386E-03
695.00,3.9992E-03
700.00,1.2217E-03
705.00,8.4716E-03
710.00,2.0704E-02
715.00,1.8177E-03
720.00,4.1483E-04
725.00,0.0000E+00
730.00,5.3281E-04
