wavelength,intensity
380.00,3.6435E-03
385.00,4.2757E-03
390.00,4.8420E-03
395.00,5.4183E-03
400.00,5.5105E-03
405.00,6.4417E-03
410.00,7.1592E-03
415.00,7.6246E-03
420.00,8.3503E-03
425.00,9.0875E-03
430.00,1.0021E-02
435.00,1.0498E-02
440.00,1.1637E-02
445.00,1.2542E-02
450.00,1.3431E-02
455.00,1.4137E-02
460.00,1.4924E-02
465.00,1.6276E-02
470.00,1.7097E-02
475.00,1.8111E-02
480.00,1.9488E-02
485.00,2.0433E-02
490.00,2.1726E-02
495.00,2.2868E-02
500.00,2.4271E-02
505.00,2.6120E-02
510.00,2.7886E-02
515.00,2.9519E-02
520.00,3.1608E-02
525.00,3.3756E-02
530.00,3.5978E-02
535.00,3.7884E-02
540.00,4.0101E-02
545.00,4.2232E-02
550.00,4.4049E-02
555.00,4.6176E-02
560.00,4.8535E-02
565.00,5.0322E-02
570.00,5.1807E-02
575.00,5.3405E-02
580.00,5.5130E-02
585.00,5.6831E-02
590.00,5.8455E-02
595.00,5.9828E-02
600.00,6.0915E-02
605.00,6.2419E-02
610.00,6.3420E-02
615.00,6.4356E-02
620.00,6.5059E-02
625.00,6.6190E-02
630.00,6.6685E-02
635.00,6.7830E-02
640.00,6.8387E-02
645.00,6.9529E-02
650.00,7.0072E-02
655.00,7.1010E-02
660.00,7.2035E-02
665.00,7.2194E-02
670.00,7.2682E-02
675.00,7.3466E-02
680.00,7.3988E-02
685.00,7.4662E-02
690.00,7.5483E-02
695.00,7.6354E-02
700.00,7.7094E-02
705.00,7.7810E-02
710.00,7.9369E-02
715.00,8.0735E-02
720.00,8.1318E-02
725.00,8.1840E-02
730.00,8.2995E-02
