wavelength,intensity
380.00,2.8809E-03
385.00,3.1444E-03
390.00,3.5839E-03
395.00,4.0448E-03
400.00,4.4574E-03
405.00,5.0778E-03
410.00,5.5167E-03
415.00,6.1285E-03
420.00,6.9622E-03
425.00,7.6570E-03
430.00,8.2775E-03
435.00,8.9068E-03
440.00,9.6536E-03
445.00,1.0716E-02
450.00,1.1461E-02
455.00,1.2094E-02
460.00,1.3431E-02
465.00,1.4529E-02
470.00,1.5265E-02
475.00,1.6448E-02
480.00,1.7528E-02
485.00,1.8700E-02
490.00,1.9724E-02
495.00,2.0901E-02
500.00,2.2537E-02
505.00,2.4324E-02
510.00,2.5885E-02
515.00,2.7884E-02
520.00,3.0027E-02
525.00,3.2306E-02
530.00,3.4348E-02
535.00,3.6668E-02
540.00,3.9053E-02
545.00,4.1237E-02
550.00,4.3315E-02
555.00,4.5751E-02
560.00,4.8178E-02
565.00,5.0147E-02
570.00,5.1853E-02
575.00,5.3902E-02
580.00,5.5782E-02
585.00,5.7519E-02
590.00,5.9426E-02
595.00,6.1043E-02
600.00,6.2446E-02
605.00,6.3914E-02
610.00,6.5459E-02
615.00,6.6796E-02
620.00,6.8110E-02
625.00,6.9017E-02
630.00,7.0495E-02
635.00,7.1503E-02
640.00,7.2593E-02
645.00,7.3891E-02
650.00,7.4803E-02
655.00,7.5607E-02
660.00,7.6801E-02
665.00,7.7225E-02
670.00,7.7938E-02
675.00,7.8425E-02
680.00,7.9303E-02
685.00,8.0383E-02
690.00,8.1768E-02
695.00,8.2674E-02
700.00,8.3719E-02
705.00,8.4981E-02
710.00,8.5526E-02
715.00,8.7065E-02
720.00,8.8396E-02
725.00,8.9421E-02
730.00,9.0786E-02
