wavelength,intensity
380.00,4.4705E-03
385.00,5.1029E-03
390.00,5.7108E-03
395.00,6.3071E-03
400.00,6.7041E-03
405.00,7.4587E-03
410.00,8.0728E-03
415.00,8.6646E-03
420.00,9.4691E-03
425.00,1.0195E-02
430.00,1.0938E-02
435.00,1.1771E-02
440.00,1.2551E-02
445.00,1.3581E-02
450.00,1.4443E-02
455.00,1.5405E-02
460.00,1.6377E-02
465.00,1.7342E-02
470.00,1.8521E-02
475.00,1.9449E-02
480.00,2.0794E-02
485.00,2.1746E-02
490.00,2.2916E-02
495.00,2.4243E-02
500.00,2.5612E-02
505.00,2.7203E-02
510.00,2.9004E-02
515.00,3.0801E-02
520.00,3.2827E-02
525.00,3.4930E-02
530.00,3.6973E-02
535.00,3.8884E-02
540.00,4.0939E-02
545.00,4.2924E-02
550.00,4.4792E-02
555.00,4.6896E-02
560.00,4.8874E-02
565.00,5.0244E-02
570.00,5.2043E-02
575.00,5.3417E-02
580.00,5.4959E-02
585.00,5.6246E-02
590.00,5.7610E-02
595.00,5.8693E-02
600.00,5.9695E-02
605.00,6.0733E-02
610.00,6.1695E-02
615.00,6.2459E-02
620.00,6.2823E-02
625.00,6.3726E-02
630.00,6.4317E-02
635.00,6.5055E-02
640.00,6.5752E-02
645.00,6.6300E-02
650.00,6.6856E-02
655.00,6.6889E-02
660.00,6.7775E-02
665.00,6.7714E-02
670.00,6.8026E-02
675.00,6.8411E-02
680.00,6.8652E-02
685.00,6.9099E-02
690.00,6.9598E-02
695.00,7.0322E-02
700.00,7.0547E-02
705.00,7.1398E-02
710.00,7.1763E-02
715.00,7.2710E-02
720.00,7.3238E-02
725.00,7.3476E-02
730.00,7.4261E-02
