wavelength,intensity
380.00,2.3231E-03
385.00,2.6870E-03
390.00,3.0395E-03
395.00,3.4082E-03
400.00,3.8350E-03
405.00,4.3259E-03
410.00,4.8267E-03
415.00,5.3233E-03
420.00,5.9359E-03
425.00,6.5486E-03
430.00,7.2878E-03
435.00,7.9869E-03
440.00,8.7906E-03
445.00,9.5992E-03
450.00,1.0424E-02
455.00,1.1285E-02
460.00,1.2258E-02
465.00,1.3449E-02
470.00,1.4480E-02
475.00,1.5579E-02
480.00,1.6941E-02
485.00,1.7909E-02
490.00,1.9300E-02
495.00,2.0721E-02
500.00,2.2256E-02
505.00,2.4099E-02
510.00,2.5967E-02
515.00,2.8133E-02
520.00,3.0254E-02
525.00,3.2557E-02
530.00,3.4804E-02
535.00,3.7073E-02
540.00,3.9244E-02
545.00,4.1530E-02
550.00,4.3695E-02
555.00,4.5981E-02
560.00,4.8259E-02
565.00,5.0083E-02
570.00,5.1865E-02
575.00,5.3654E-02
580.00,5.5625E-02
585.00,5.7255E-02
590.00,5.8939E-02
595.00,6.0637E-02
600.00,6.2036E-02
605.00,6.3499E-02
610.00,6.5122E-02
615.00,6.6653E-02
620.00,6.7942E-02
625.00,6.9379E-02
630.00,7.0638E-02
635.00,7.1919E-02
640.00,7.3227E-02
645.00,7.4345E-02
650.00,7.5448E-02
655.00,7.6518E-02
660.00,7.7382E-02
665.00,7.8170E-02
670.00,7.9175E-02
675.00,7.9960E-02
680.00,8.0566E-02
685.00,8.1332E-02
690.00,8.1893E-02
695.00,8.2955E-02
700.00,8.3372E-02
705.00,8.4619E-02
710.00,8.4945E-02
715.00,8.5737E-02
720.00,8.6458E-02
725.00,8.6803E-02
730.00,8.7530E-02
