wavelength,intensity
380.00,2.4875E-03
385.00,2.9029E-03
390.00,3.3280E-03
395.00,3.6959E-03
400.00,4.1224E-03
405.00,4.6223E-03
410.00,5.1674E-03
415.00,5.6938E-03
420.00,6.3188E-03
425.00,6.9987E-03
430.00,7.7268E-03
435.00,8.4255E-03
440.00,9.3074E-03
445.00,1.0077E-02
450.00,1.1055E-02
455.00,1.1983E-02
460.00,1.2941E-02
465.00,1.4115E-02
470.00,1.5139E-02
475.00,1.6396E-02
480.00,1.7670E-02
485.00,1.8781E-02
490.00,2.0096E-02
495.00,2.1580E-02
500.00,2.3198E-02
505.00,2.5005E-02
510.00,2.6866E-02
515.00,2.8957E-02
520.00,3.1214E-02
525.00,3.3375E-02
530.00,3.5606E-02
535.00,3.7739E-02
540.00,3.9892E-02
545.00,4.2060E-02
550.00,4.3984E-02
555.00,4.5926E-02
560.00,4.7960E-02
565.00,4.9655E-02
570.00,5.1314E-02
575.00,5.3108E-02
580.00,5.4802E-02
585.00,5.6433E-02
590.00,5.8107E-02
595.00,5.9678E-02
600.00,6.1119E-02
605.00,6.2612E-02
610.00,6.4250E-02
615.00,6.5846E-02
620.00,6.7145E-02
625.00,6.8748E-02
630.00,7.0210E-02
635.00,7.1608E-02
640.00,7.2911E-02
645.00,7.4288E-02
650.00,7.5576E-02
655.00,7.6872E-02
660.00,7.8189E-02
665.00,7.9248E-02
670.00,8.0452E-02
675.00,8.1677E-02
680.00,8.2814E-02
685.00,8.3789E-02
690.00,8.5003E-02
695.00,8.6415E-02
700.00,8.6924E-02
705.00,8.8523E-02
710.00,8.9109E-02
715.00,9.0179E-02
720.00,9.1348E-02
725.00,9.2033E-02
730.00,9.3148E-02
