wavelength,intensity
380.00,2.8540E-03
385.00,3.3102E-03
390.00,3.7260E-03
395.00,4.3599E-03
400.00,4.6583E-03
405.00,5.1500E-03
410.00,5.7920E-03
415.00,6.4460E-03
420.00,6.9927E-03
425.00,7.5949E-03
430.00,8.4351E-03
435.00,9.0077E-03
440.00,9.8022E-03
445.00,1.0691E-02
450.00,1.1633E-02
455.00,1.2307E-02
460.00,1.3393E-02
465.00,1.4522E-02
470.00,1.5589E-02
475.00,1.6422E-02
480.00,1.7712E-02
485.00,1.8886E-02
490.00,2.0076E-02
495.00,2.1353E-02
500.00,2.2879E-02
505.00,2.4509E-02
510.00,2.6322E-02
515.00,2.8408E-02
520.00,3.0347E-02
525.00,3.2745E-02
530.00,3.4636E-02
535.00,3.6978E-02
540.00,3.9331E-02
545.00,4.1430E-02
550.00,4.3652E-02
555.00,4.6014E-02
560.00,4.8189E-02
565.00,5.0046E-02
570.00,5.2045E-02
575.00,5.3951E-02
580.00,5.5718E-02
585.00,5.7529E-02
590.00,5.9319E-02
595.00,6.0827E-02
600.00,6.2259E-02
605.00,6.3613E-02
610.00,6.4871E-02
615.00,6.6264E-02
620.00,6.7223E-02
625.00,6.8304E-02
630.00,6.9239E-02
635.00,7.0363E-02
640.00,7.1649E-02
645.00,7.2597E-02
650.00,7.3227E-02
655.00,7.4080E-02
660.00,7.4966E-02
665.00,7.5434E-02
670.00,7.6159E-02
675.00,7.6627E-02
680.00,7.7189E-02
685.00,7.7674E-02
690.00,7.8771E-02
695.00,7.9933E-02
700.00,8.0547E-02
705.00,8.1157E-02
710.00,8.2140E-02
715.00,8.2581E-02
720.00,8.3813E-02
725.00,8.4211E-02
730.00,8.5245E-02
