wavelength,intensity
380.00,2.8794E-03
385.00,3.3665E-03
390.00,3.8472E-03
395.00,4.2338E-03
400.00,4.8472E-03
405.00,5.3894E-03
410.00,5.9901E-03
415.00,6.5922E-03
420.00,7.2826E-03
425.00,8.0312E-03
430.00,8.7542E-03
435.00,9.6119E-03
440.00,1.0483E-02
445.00,1.1391E-02
450.00,1.2433E-02
455.00,1.3302E-02
460.00,1.4397E-02
465.00,1.5671E-02
470.00,1.6680E-02
475.00,1.7997E-02
480.00,1.9330E-02
485.00,2.0463E-02
490.00,2.1853E-02
495.00,2.3390E-02
500.00,2.4985E-02
505.00,2.6811E-02
510.00,2.8761E-02
515.00,3.0817E-02
520.00,3.2921E-02
525.00,3.4952E-02
530.00,3.6909E-02
535.00,3.8773E-02
540.00,4.0572E-02
545.00,4.2267E-02
550.00,4.3981E-02
555.00,4.5683E-02
560.00,4.7420E-02
565.00,4.8925E-02
570.00,5.0523E-02
575.00,5.2127E-02
580.00,5.3742E-02
585.00,5.5204E-02
590.00,5.6883E-02
595.00,5.8400E-02
600.00,5.9775E-02
605.00,6.1341E-02
610.00,6.2891E-02
615.00,6.4621E-02
620.00,6.5980E-02
625.00,6.7640E-02
630.00,6.9196E-02
635.00,7.0619E-02
640.00,7.2082E-02
645.00,7.3505E-02
650.00,7.4929E-02
655.00,7.6549E-02
660.00,7.8167E-02
665.00,7.9623E-02
670.00,8.1405E-02
675.00,8.3149E-02
680.00,8.5064E-02
685.00,8.6821E-02
690.00,8.8865E-02
695.00,9.0748E-02
700.00,9.2486E-02
705.00,9.4585E-02
710.00,9.6070E-02
715.00,9.8005E-02
720.00,9.9593E-02
725.00,1.0096E-01
730.00,1.0249E-01
