wavelength,intensity
380.00,3.6529E-03
385.00,4.0244E-03
390.00,4.5220E-03
395.00,5.0019E-03
400.00,5.5458E-03
405.00,6.4700E-03
410.00,6.7460E-03
415.00,7.5121E-03
420.00,7.9623E-03
425.00,8.7286E-03
430.00,9.2915E-03
435.00,1.0650E-02
440.00,1.0930E-02
445.00,1.2030E-02
450.00,1.3025E-02
455.00,1.3756E-02
460.00,1.4678E-02
465.00,1.5775E-02
470.00,1.6944E-02
475.00,1.7763E-02
480.00,1.9007E-02
485.00,2.0079E-02
490.00,2.1265E-02
495.00,2.2505E-02
500.00,2.3973E-02
505.00,2.5494E-02
510.00,2.7250E-02
515.00,2.9229E-02
520.00,3.1295E-02
525.00,3.3352E-02
530.00,3.5527E-02
535.00,3.7602E-02
540.00,3.9779E-02
545.00,4.2205E-02
550.00,4.4119E-02
555.00,4.6079E-02
560.00,4.8617E-02
565.00,5.0130E-02
570.00,5.2250E-02
575.00,5.3649E-02
580.00,5.5395E-02
585.00,5.6921E-02
590.00,5.8598E-02
595.00,6.0136E-02
600.00,6.1501E-02
605.00,6.2653E-02
610.00,6.3467E-02
615.00,6.4757E-02
620.00,6.5436E-02
625.00,6.6838E-02
630.00,6.7595E-02
635.00,6.8247E-02
640.00,6.8775E-02
645.00,7.0369E-02
650.00,7.0885E-02
655.00,7.1531E-02
660.00,7.2410E-02
665.00,7.2549E-02
670.00,7.3078E-02
675.00,7.3624E-02
680.00,7.4526E-02
685.00,7.5187E-02
690.00,7.5847E-02
695.00,7.6491E-02
700.00,7.7527E-02
705.00,7.8543E-02
710.00,7.8950E-02
715.00,7.9813E-02
720.00,8.1169E-02
725.00,8.1803E-02
730.00,8.2764E-02
