wavelength,intensity
380.00,4.2177E-03
385.00,5.0396E-03
390.00,5.4278E-03
395.00,6.1002E-03
400.00,6.2660E-03
405.00,7.1017E-03
410.00,8.1228E-03
415.00,8.7700E-03
420.00,8.9845E-03
425.00,1.0291E-02
430.00,1.0921E-02
435.00,1.1359E-02
440.00,1.2479E-02
445.00,1.3433E-02
450.00,1.4396E-02
455.00,1.5083E-02
460.00,1.6350E-02
465.00,1.7240E-02
470.00,1.8233E-02
475.00,1.9139E-02
480.00,2.0673E-02
485.00,2.1533E-02
490.00,2.2404E-02
495.00,2.3839E-02
500.00,2.5185E-02
505.00,2.6904E-02
510.00,2.8748E-02
515.00,3.0702E-02
520.00,3.2691E-02
525.00,3.4579E-02
530.00,3.6734E-02
535.00,3.8840E-02
540.00,4.0475E-02
545.00,4.2695E-02
550.00,4.4585E-02
555.00,4.6721E-02
560.00,4.8605E-02
565.00,5.0285E-02
570.00,5.1458E-02
575.00,5.3243E-02
580.00,5.5150E-02
585.00,5.6544E-02
590.00,5.7917E-02
595.00,5.9021E-02
600.00,6.0266E-02
605.00,6.1492E-02
610.00,6.1534E-02
615.00,6.3136E-02
620.00,6.3479E-02
625.00,6.4126E-02
630.00,6.4993E-02
635.00,6.6304E-02
640.00,6.6620E-02
645.00,6.7154E-02
650.00,6.7671E-02
655.00,6.8095E-02
660.00,6.8825E-02
665.00,6.8999E-02
670.00,6.9182E-02
675.00,6.9628E-02
680.00,7.0497E-02
685.00,7.0978E-02
690.00,7.0878E-02
695.00,7.1598E-02
700.00,7.2077E-02
705.00,7.3477E-02
710.00,7.4113E-02
715.00,7.4625E-02
720.00,7.4592E-02
725.00,7.5026E-02
730.00,7.6310E-02
