wavelength,intensity
380.00,0.0000E+00
385.00,0.0000E+00
390.00,0.0000E+00
395.00,5.8317E-04
400.00,1.2495E-03
405.00,3.0544E-03
410.00,4.6147E-03
415.00,5.9617E-03
420.00,6.2405E-03
425.00,7.4382E-03
430.00,8.5574E-03
435.00,8.5606E-03
440.00,9.8346E-03
445.00,1.0503E-02
450.00,1.1475E-02
455.00,1.2260E-02
460.00,1.3066E-02
465.00,1.4398E-02
470.00,1.5361E-02
475.00,1.6690E-02
480.00,1.7834E-02
485.00,1.8874E-02
490.00,1.9847E-02
495.00,2.1450E-02
500.00,2.2988E-02
505.00,2.4601E-02
510.00,2.6414E-02
515.00,2.8449E-02
520.00,3.0488E-02
525.00,3.2755E-02
530.00,3.4796E-02
535.00,3.7101E-02
540.00,3.9507E-02
545.00,4.1844E-02
550.00,4.3595E-02
555.00,4.6118E-02
560.00,4.8194E-02
565.00,5.0265E-02
570.00,5.2147E-02
575.00,5.3969E-02
580.00,5.5771E-02
585.00,5.7656E-02
590.00,5.9193E-02
595.00,6.0616E-02
600.00,6.2166E-02
605.00,6.3477E-02
610.00,6.4731E-02
615.00,6.6004E-02
620.00,6.6609E-02
625.00,6.8080E-02
630.00,6.8706E-02
635.00,6.9985E-02
640.00,7.0995E-02
645.00,7.1999E-02
650.00,7.2867E-02
655.00,7.3608E-02
660.00,7.4457E-02
665.00,7.5292E-02
670.00,7.4449E-02
675.00,7.6101E-02
680.00,7.6619E-02
685.00,7.7693E-02
690.00,7.7801E-02
695.00,7.9114E-02
700.00,8.0363E-02
705.00,8.1212E-02
710.00,8.1824E-02
715.00,8.3318E-02
720.00,8.4019E-02
725.00,8.4502E-02
730.00,8.6001E-02
