wavelength,intensity
380.00,4.4287E-03
385.00,5.0753E-03
390.00,5.6125E-03
395.00,6.2722E-03
400.00,6.8379E-03
405.00,7.5754E-03
410.00,8.3033E-03
415.00,9.0676E-03
420.00,9.9119E-03
425.00,1.0802E-02
430.00,1.1740E-02
435.00,1.2638E-02
440.00,1.3679E-02
445.00,1.4760E-02
450.00,1.5831E-02
455.00,1.6892E-02
460.00,1.8087E-02
465.00,1.9324E-02
470.00,2.0475E-02
475.00,2.1750E-02
480.00,2.3148E-02
485.00,2.4520E-02
490.00,2.5904E-02
495.00,2.7255E-02
500.00,2.8777E-02
505.00,3.0408E-02
510.00,3.2006E-02
515.00,3.3657E-02
520.00,3.5217E-02
525.00,3.6683E-02
530.00,3.8201E-02
535.00,3.9634E-02
540.00,4.1097E-02
545.00,4.2544E-02
550.00,4.3971E-02
555.00,4.5376E-02
560.00,4.6991E-02
565.00,4.8354E-02
570.00,4.9713E-02
575.00,5.1161E-02
580.00,5.2621E-02
585.00,5.3932E-02
590.00,5.5422E-02
595.00,5.6794E-02
600.00,5.8053E-02
605.00,5.9406E-02
610.00,6.0839E-02
615.00,6.2420E-02
620.00,6.3625E-02
625.00,6.5121E-02
630.00,6.6481E-02
635.00,6.7749E-02
640.00,6.9063E-02
645.00,7.0344E-02
650.00,7.1575E-02
655.00,7.2926E-02
660.00,7.4361E-02
665.00,7.5587E-02
670.00,7.7150E-02
675.00,7.8723E-02
680.00,8.0356E-02
685.00,8.1859E-02
690.00,8.3483E-02
695.00,8.5165E-02
700.00,8.6387E-02
705.00,8.7926E-02
710.00,8.9024E-02
715.00,9.0223E-02
720.00,9.1464E-02
725.00,9.2376E-02
730.00,9.3176E-02
