wavelength,intensity
380.00,3.3555E-03
385.00,3.9907E-03
390.00,4.4817E-03
395.00,4.9296E-03
400.00,5.5626E-03
405.00,6.0721E-03
410.00,6.8148E-03
415.00,7.4353E-03
420.00,8.1982E-03
425.00,8.9513E-03
430.00,9.7842E-03
435.00,1.0682E-02
440.00,1.1521E-02
445.00,1.2444E-02
450.00,1.3441E-02
455.00,1.4288E-02
460.00,1.5430E-02
465.00,1.6590E-02
470.00,1.7685E-02
475.00,1.8789E-02
480.00,2.0237E-02
485.00,2.1216E-02
490.00,2.2644E-02
495.00,2.4029E-02
500.00,2.5560E-02
505.00,2.7374E-02
510.00,2.9103E-02
515.00,3.1100E-02
520.00,3.3221E-02
525.00,3.5196E-02
530.00,3.7141E-02
535.00,3.9026E-02
540.00,4.0762E-02
545.00,4.2546E-02
550.00,4.4198E-02
555.00,4.5904E-02
560.00,4.7617E-02
565.00,4.9148E-02
570.00,5.0632E-02
575.00,5.2150E-02
580.00,5.3738E-02
585.00,5.5199E-02
590.00,5.6730E-02
595.00,5.8187E-02
600.00,5.9466E-02
605.00,6.0886E-02
610.00,6.2363E-02
615.00,6.3914E-02
620.00,6.5169E-02
625.00,6.6610E-02
630.00,6.8047E-02
635.00,6.9278E-02
640.00,7.0675E-02
645.00,7.1832E-02
650.00,7.3017E-02
655.00,7.4363E-02
660.00,7.5692E-02
665.00,7.6783E-02
670.00,7.7876E-02
675.00,7.9131E-02
680.00,8.0383E-02
685.00,8.1524E-02
690.00,8.2904E-02
695.00,8.3846E-02
700.00,8.5121E-02
705.00,8.6494E-02
710.00,8.7141E-02
715.00,8.8419E-02
720.00,8.9362E-02
725.00,9.0260E-02
730.00,9.1310E-02
