wavelength,intensity
380.00,3.5788E-03
385.00,4.0471E-03
390.00,4.4847E-03
395.00,5.0142E-03
400.00,5.5243E-03
405.00,6.0305E-03
410.00,6.7462E-03
415.00,7.2978E-03
420.00,7.9569E-03
425.00,8.6502E-03
430.00,9.4451E-03
435.00,1.0169E-02
440.00,1.0902E-02
445.00,1.1995E-02
450.00,1.2747E-02
455.00,1.3670E-02
460.00,1.4448E-02
465.00,1.5670E-02
470.00,1.6726E-02
475.00,1.7724E-02
480.00,1.8999E-02
485.00,1.9915E-02
490.00,2.1163E-02
495.00,2.2626E-02
500.00,2.3908E-02
505.00,2.5580E-02
510.00,2.7370E-02
515.00,2.9244E-02
520.00,3.1335E-02
525.00,3.3468E-02
530.00,3.5490E-02
535.00,3.7630E-02
540.00,3.9714E-02
545.00,4.1799E-02
550.00,4.3953E-02
555.00,4.6052E-02
560.00,4.8289E-02
565.00,5.0035E-02
570.00,5.1774E-02
575.00,5.3552E-02
580.00,5.5282E-02
585.00,5.6875E-02
590.00,5.8687E-02
595.00,5.9958E-02
600.00,6.1350E-02
605.00,6.2659E-02
610.00,6.3944E-02
615.00,6.5097E-02
620.00,6.6006E-02
625.00,6.7174E-02
630.00,6.8029E-02
635.00,6.9197E-02
640.00,7.0183E-02
645.00,7.0975E-02
650.00,7.1791E-02
655.00,7.2455E-02
660.00,7.3569E-02
665.00,7.3848E-02
670.00,7.4493E-02
675.00,7.5147E-02
680.00,7.5186E-02
685.00,7.6266E-02
690.00,7.7131E-02
695.00,7.7898E-02
700.00,7.8597E-02
705.00,7.9647E-02
710.00,8.0116E-02
715.00,8.1079E-02
720.00,8.1855E-02
725.00,8.2373E-02
730.00,8.3145E-02
