wavelength,intensity
380.00,3.3460E-03
385.00,3.8543E-03
390.00,4.3891E-03
395.00,4.8490E-03
400.00,5.4953E-03
405.00,6.0251E-03
410.00,6.7193E-03
415.00,7.3659E-03
420.00,8.1042E-03
425.00,8.8051E-03
430.00,9.5876E-03
435.00,1.0523E-02
440.00,1.1411E-02
445.00,1.2385E-02
450.00,1.3373E-02
455.00,1.4244E-02
460.00,1.5353E-02
465.00,1.6503E-02
470.00,1.7592E-02
475.00,1.8757E-02
480.00,2.0091E-02
485.00,2.1208E-02
490.00,2.2518E-02
495.00,2.3955E-02
500.00,2.5526E-02
505.00,2.7255E-02
510.00,2.9113E-02
515.00,3.1087E-02
520.00,3.3136E-02
525.00,3.5123E-02
530.00,3.7144E-02
535.00,3.9038E-02
540.00,4.0749E-02
545.00,4.2546E-02
550.00,4.4109E-02
555.00,4.5826E-02
560.00,4.7600E-02
565.00,4.9093E-02
570.00,5.0585E-02
575.00,5.2162E-02
580.00,5.3735E-02
585.00,5.5187E-02
590.00,5.6774E-02
595.00,5.8223E-02
600.00,5.9545E-02
605.00,6.0917E-02
610.00,6.2484E-02
615.00,6.4006E-02
620.00,6.5278E-02
625.00,6.6701E-02
630.00,6.8153E-02
635.00,6.9532E-02
640.00,7.0724E-02
645.00,7.2052E-02
650.00,7.3391E-02
655.00,7.4532E-02
660.00,7.5985E-02
665.00,7.7150E-02
670.00,7.8448E-02
675.00,7.9794E-02
680.00,8.1102E-02
685.00,8.2190E-02
690.00,8.3335E-02
695.00,8.4905E-02
700.00,8.5741E-02
705.00,8.7354E-02
710.00,8.7984E-02
715.00,8.9118E-02
720.00,9.0276E-02
725.00,9.1096E-02
730.00,9.2382E-02
