wavelength,intensity
380.00,2.2332E-03
385.00,2.4834E-03
390.00,2.8620E-03
395.00,3.2011E-03
400.00,3.7180E-03
405.00,4.2011E-03
410.00,4.4254E-03
415.00,5.3547E-03
420.00,5.7605E-03
425.00,6.4806E-03
430.00,6.8489E-03
435.00,7.2952E-03
440.00,8.8011E-03
445.00,9.5644E-03
450.00,9.8296E-03
455.00,1.0594E-02
460.00,1.0909E-02
465.00,1.2656E-02
470.00,1.2943E-02
475.00,1.4793E-02
480.00,1.6054E-02
485.00,1.6713E-02
490.00,1.7754E-02
495.00,1.9283E-02
500.00,2.0376E-02
505.00,2.2192E-02
510.00,2.3888E-02
515.00,2.5843E-02
520.00,2.8382E-02
525.00,3.0067E-02
530.00,3.2601E-02
535.00,3.5238E-02
540.00,3.7180E-02
545.00,3.9409E-02
550.00,4.2288E-02
555.00,4.4461E-02
560.00,4.7264E-02
565.00,4.9342E-02
570.00,5.1705E-02
575.00,5.3719E-02
580.00,5.6320E-02
585.00,5.8407E-02
590.00,6.1046E-02
595.00,6.2710E-02
600.00,6.5095E-02
605.00,6.6380E-02
610.00,6.8416E-02
615.00,6.9334E-02
620.00,7.1637E-02
625.00,7.3397E-02
630.00,7.5096E-02
635.00,7.7692E-02
640.00,7.9063E-02
645.00,8.0137E-02
650.00,8.2030E-02
655.00,8.3130E-02
660.00,8.4803E-02
665.00,8.5329E-02
670.00,8.7330E-02
675.00,8.8054E-02
680.00,8.9249E-02
685.00,9.1232E-02
690.00,9.2117E-02
695.00,9.4217E-02
700.00,9.4993E-02
705.00,9.6946E-02
710.00,9.7934E-02
715.00,9.9172E-02
720.00,1.0074E-01
725.00,1.0303E-01
730.00,1.0479E-01
