wavelength,intensity
380.00,2.1506E-03
385.00,1.6605E-03
390.00,2.6463E-03
395.00,2.3169E-03
400.00,2.6305E-03
405.00,3.7085E-03
410.00,3.7507E-03
415.00,4.1203E-03
420.00,4.8830E-03
425.00,5.3028E-03
430.00,5.6816E-03
435.00,6.4746E-03
440.00,6.9166E-03
445.00,7.9833E-03
450.00,8.0714E-03
455.00,9.2967E-03
460.00,1.0308E-02
465.00,1.1889E-02
470.00,1.1688E-02
475.00,1.3124E-02
480.00,1.4764E-02
485.00,1.5084E-02
490.00,1.6614E-02
495.00,1.8145E-02
500.00,1.8923E-02
505.00,2.1006E-02
510.00,2.2833E-02
515.00,2.4775E-02
520.00,2.6728E-02
525.00,2.9013E-02
530.00,3.1552E-02
535.00,3.3869E-02
540.00,3.6256E-02
545.00,3.8987E-02
550.00,4.1194E-02
555.00,4.4196E-02
560.00,4.6398E-02
565.00,4.9088E-02
570.00,5.1736E-02
575.00,5.4366E-02
580.00,5.6659E-02
585.00,5.8661E-02
590.00,6.1503E-02
595.00,6.3990E-02
600.00,6.5881E-02
605.00,6.7708E-02
610.00,7.0176E-02
615.00,7.2682E-02
620.00,7.4015E-02
625.00,7.5796E-02
630.00,7.8296E-02
635.00,7.9860E-02
640.00,8.1406E-02
645.00,8.3689E-02
650.00,8.5696E-02
655.00,8.7509E-02
660.00,8.9752E-02
665.00,9.0813E-02
670.00,9.1874E-02
675.00,9.4351E-02
680.00,9.5514E-02
685.00,9.6538E-02
690.00,9.9588E-02
695.00,1.0129E-01
700.00,1.0367E-01
705.00,1.0577E-01
710.00,1.0852E-01
715.00,1.0987E-01
720.00,1.1323E-01
725.00,1.1456E-01
730.00,1.1658E-01
