wavelength,intensity
380.00,0.0000E+00
385.00,7.0308E-04
390.00,8.1144E-04
395.00,0.0000E+00
400.00,4.8589E-04
405.00,2.3545E-03
410.00,1.5219E-03
415.00,2.2499E-03
420.00,2.0766E-03
425.00,2.5775E-03
430.00,1.7273E-03
435.00,4.3569E-03
440.00,5.4439E-03
445.00,4.3579E-03
450.00,6.7625E-03
455.00,5.8848E-03
460.00,7.2854E-03
465.00,8.5898E-03
470.00,8.6984E-03
475.00,1.0697E-02
480.00,1.2523E-02
485.00,1.2183E-02
490.00,1.4780E-02
495.00,1.5917E-02
500.00,1.6833E-02
505.00,1.8619E-02
510.00,2.0729E-02
515.00,2.2738E-02
520.00,2.4965E-02
525.00,2.6625E-02
530.00,2.9900E-02
535.00,3.1974E-02
540.00,3.4166E-02
545.00,3.8193E-02
550.00,3.9782E-02
555.00,4.2498E-02
560.00,4.5692E-02
565.00,4.8360E-02
570.00,5.1723E-02
575.00,5.4144E-02
580.00,5.6522E-02
585.00,5.9612E-02
590.00,6.3479E-02
595.00,6.6551E-02
600.00,6.7660E-02
605.00,7.0823E-02
610.00,7.3172E-02
615.00,7.5668E-02
620.00,7.7125E-02
625.00,8.0667E-02
630.00,8.3383E-02
635.00,8.5012E-02
640.00,8.8554E-02
645.00,9.1177E-02
650.00,9.5984E-02
655.00,9.6977E-02
660.00,9.8936E-02
665.00,9.9715E-02
670.00,1.0075E-01
675.00,1.0492E-01
680.00,1.0649E-01
685.00,1.0876E-01
690.00,1.1570E-01
695.00,1.1686E-01
700.00,1.1940E-01
705.00,1.2352E-01
710.00,1.2512E-01
715.00,1.2615E-01
720.00,1.3050E-01
725.00,1.3446E-01
730.00,1.4043E-01
