wavelength,intensity
380.00,1.9018E-03
385.00,2.3047E-03
390.00,2.7610E-03
395.00,2.9515E-03
400.00,3.6001E-03
405.00,3.9471E-03
410.00,4.5369E-03
415.00,5.0061E-03
420.00,5.5116E-03
425.00,6.0982E-03
430.00,6.7107E-03
435.00,7.4987E-03
440.00,8.1396E-03
445.00,8.9774E-03
450.00,9.7191E-03
455.00,1.0621E-02
460.00,1.1185E-02
465.00,1.2018E-02
470.00,1.3144E-02
475.00,1.4218E-02
480.00,1.5230E-02
485.00,1.6349E-02
490.00,1.7498E-02
495.00,1.8936E-02
500.00,2.0370E-02
505.00,2.2088E-02
510.00,2.3855E-02
515.00,2.5784E-02
520.00,2.7981E-02
525.00,3.0296E-02
530.00,3.2556E-02
535.00,3.4776E-02
540.00,3.7192E-02
545.00,3.9429E-02
550.00,4.2165E-02
555.00,4.4637E-02
560.00,4.7403E-02
565.00,4.9332E-02
570.00,5.1531E-02
575.00,5.3953E-02
580.00,5.6200E-02
585.00,5.8389E-02
590.00,6.0895E-02
595.00,6.2706E-02
600.00,6.5004E-02
605.00,6.6667E-02
610.00,6.8665E-02
615.00,7.0383E-02
620.00,7.2161E-02
625.00,7.3965E-02
630.00,7.5258E-02
635.00,7.7420E-02
640.00,7.9065E-02
645.00,8.0339E-02
650.00,8.1694E-02
655.00,8.3205E-02
660.00,8.5095E-02
665.00,8.5742E-02
670.00,8.7281E-02
675.00,8.8170E-02
680.00,8.9649E-02
685.00,9.0677E-02
690.00,9.1970E-02
695.00,9.3723E-02
700.00,9.5389E-02
705.00,9.7083E-02
710.00,9.8639E-02
715.00,1.0022E-01
720.00,1.0182E-01
725.00,1.0311E-01
730.00,1.0520E-01
