wavelength,intensity
380.00,0.0000E+00
385.00,3.1831E-03
390.00,3.9566E-03
395.00,4.6189E-03
400.00,5.3728E-03
405.00,5.8809E-03
410.00,6.2758E-03
415.00,7.1391E-03
420.00,7.8703E-03
425.00,8.2957E-03
430.00,8.1488E-03
435.00,9.6242E-03
440.00,1.1104E-02
445.00,1.1843E-02
450.00,1.3212E-02
455.00,1.4015E-02
460.00,1.5073E-02
465.00,1.6197E-02
470.00,1.7116E-02
475.00,1.7643E-02
480.00,1.9848E-02
485.00,2.2717E-02
490.00,2.4875E-02
495.00,2.6652E-02
500.00,2.7856E-02
505.00,2.8779E-02
510.00,2.7393E-02
515.00,2.7054E-02
520.00,3.1786E-02
525.00,2.6661E-02
530.00,2.6632E-02
535.00,3.5963E-02
540.00,4.9915E-02
545.00,5.8973E-02
550.00,6.3710E-02
555.00,6.6791E-02
560.00,6.9441E-02
565.00,6.5911E-02
570.00,2.6903E-02
575.00,1.1246E-02
580.00,1.3808E-02
585.00,6.3469E-03
590.00,1.2229E-02
595.00,2.6750E-02
600.00,4.8304E-02
605.00,6.9053E-02
610.00,8.2711E-02
615.00,9.9004E-02
620.00,1.0566E-01
625.00,1.0661E-01
630.00,1.0919E-01
635.00,1.1301E-01
640.00,1.1662E-01
645.00,1.2037E-01
650.00,1.2302E-01
655.00,1.2538E-01
660.00,1.2803E-01
665.00,1.2948E-01
670.00,1.2973E-01
675.00,1.2995E-01
680.00,1.2822E-01
685.00,1.2599E-01
690.00,1.3527E-01
695.00,1.4582E-01
700.00,1.5321E-01
705.00,1.5818E-01
710.00,1.6319E-01
715.00,1.6680E-01
720.00,1.6978E-01
725.00,1.6773E-01
730.00,1.5334E-01
