wavelength,intensity
380.00,2.6387E-03
385.00,3.3362E-03
390.00,3.7428E-03
395.00,4.3538E-03
400.00,4.8813E-03
405.00,5.1089E-03
410.00,5.7104E-03
415.00,6.5009E-03
420.00,7.1047E-03
425.00,7.7326E-03
430.00,8.3989E-03
435.00,9.2005E-03
440.00,1.0169E-02
445.00,1.0823E-02
450.00,1.1741E-02
455.00,1.2830E-02
460.00,1.3360E-02
465.00,1.4501E-02
470.00,1.5215E-02
475.00,1.6333E-02
480.00,1.7744E-02
485.00,1.8805E-02
490.00,1.9752E-02
495.00,2.0950E-02
500.00,2.2396E-02
505.00,2.4270E-02
510.00,2.5824E-02
515.00,2.8052E-02
520.00,2.9924E-02
525.00,3.2135E-02
530.00,3.4291E-02
535.00,3.6400E-02
540.00,3.8762E-02
545.00,4.0748E-02
550.00,4.3171E-02
555.00,4.5295E-02
560.00,4.7746E-02
565.00,4.9731E-02
570.00,5.1524E-02
575.00,5.3839E-02
580.00,5.5817E-02
585.00,5.7952E-02
590.00,5.9662E-02
595.00,6.1549E-02
600.00,6.3042E-02
605.00,6.4384E-02
610.00,6.5904E-02
615.00,6.7532E-02
620.00,6.8299E-02
625.00,6.9698E-02
630.00,7.0636E-02
635.00,7.2090E-02
640.00,7.3213E-02
645.00,7.4409E-02
650.00,7.5391E-02
655.00,7.6190E-02
660.00,7.7186E-02
665.00,7.8062E-02
670.00,7.8117E-02
675.00,7.8774E-02
680.00,7.9813E-02
685.00,8.0822E-02
690.00,8.1229E-02
695.00,8.2389E-02
700.00,8.2936E-02
705.00,8.4488E-02
710.00,8.4699E-02
715.00,8.5728E-02
720.00,8.6629E-02
725.00,8.7407E-02
730.00,8.8346E-02
