wavelength,intensity
380.00,2.8938E-03
385.00,3.4418E-03
390.00,3.8326E-03
395.00,4.1252E-03
400.00,4.5592E-03
405.00,5.0498E-03
410.00,5.6122E-03
415.00,6.1327E-03
420.00,6.9675E-03
425.00,7.2935E-03
430.00,8.1734E-03
435.00,8.9864E-03
440.00,9.6123E-03
445.00,1.0328E-02
450.00,1.1420E-02
455.00,1.2207E-02
460.00,1.3155E-02
465.00,1.4244E-02
470.00,1.5136E-02
475.00,1.6342E-02
480.00,1.7329E-02
485.00,1.8356E-02
490.00,1.9515E-02
495.00,2.0731E-02
500.00,2.2383E-02
505.00,2.4099E-02
510.00,2.5644E-02
515.00,2.7983E-02
520.00,2.9641E-02
525.00,3.1853E-02
530.00,3.4153E-02
535.00,3.6460E-02
540.00,3.8351E-02
545.00,4.0983E-02
550.00,4.3135E-02
555.00,4.5600E-02
560.00,4.8036E-02
565.00,4.9657E-02
570.00,5.1961E-02
575.00,5.3610E-02
580.00,5.5770E-02
585.00,5.7607E-02
590.00,5.9753E-02
595.00,6.1076E-02
600.00,6.3076E-02
605.00,6.3918E-02
610.00,6.6010E-02
615.00,6.7577E-02
620.00,6.8585E-02
625.00,6.9752E-02
630.00,7.1300E-02
635.00,7.2502E-02
640.00,7.3973E-02
645.00,7.5353E-02
650.00,7.6553E-02
655.00,7.7247E-02
660.00,7.8585E-02
665.00,7.8930E-02
670.00,8.0006E-02
675.00,8.1448E-02
680.00,8.2268E-02
685.00,8.3326E-02
690.00,8.4896E-02
695.00,8.6526E-02
700.00,8.7876E-02
705.00,8.9771E-02
710.00,9.1324E-02
715.00,9.2788E-02
720.00,9.4514E-02
725.00,9.5754E-02
730.00,9.7474E-02
