wavelength,intensity
380.00,1.0825E-03
385.00,1.3356E-03
390.00,1.9925E-03
395.00,2.2357E-03
400.00,2.8822E-03
405.00,3.3432E-03
410.00,3.7836E-03
415.00,4.3676E-03
420.00,5.0433E-03
425.00,5.4802E-03
430.00,6.1280E-03
435.00,6.7585E-03
440.00,7.6848E-03
445.00,8.2668E-03
450.00,8.9718E-03
455.00,9.7784E-03
460.00,1.0615E-02
465.00,1.1523E-02
470.00,1.2513E-02
475.00,1.3650E-02
480.00,1.4999E-02
485.00,1.5642E-02
490.00,1.7081E-02
495.00,1.8404E-02
500.00,1.9897E-02
505.00,2.1685E-02
510.00,2.3537E-02
515.00,2.5283E-02
520.00,2.7484E-02
525.00,2.9772E-02
530.00,3.2144E-02
535.00,3.4525E-02
540.00,3.6928E-02
545.00,3.9779E-02
550.00,4.1716E-02
555.00,4.4732E-02
560.00,4.7334E-02
565.00,4.9358E-02
570.00,5.1904E-02
575.00,5.4016E-02
580.00,5.6753E-02
585.00,5.8630E-02
590.00,6.0866E-02
595.00,6.3406E-02
600.00,6.4848E-02
605.00,6.7014E-02
610.00,6.8951E-02
615.00,7.1116E-02
620.00,7.2264E-02
625.00,7.4238E-02
630.00,7.6129E-02
635.00,7.7678E-02
640.00,7.9444E-02
645.00,8.0883E-02
650.00,8.2890E-02
655.00,8.4222E-02
660.00,8.6282E-02
665.00,8.7286E-02
670.00,8.7899E-02
675.00,8.9828E-02
680.00,9.0925E-02
685.00,9.2226E-02
690.00,9.5015E-02
695.00,9.6902E-02
700.00,9.8399E-02
705.00,1.0084E-01
710.00,1.0221E-01
715.00,1.0394E-01
720.00,1.0531E-01
725.00,1.0768E-01
730.00,1.0976E-01
