wavelength,intensity
380.00,2.4495E-03
385.00,2.8988E-03
390.00,3.5232E-03
395.00,3.6310E-03
400.00,4.1237E-03
405.00,4.7640E-03
410.00,5.1627E-03
415.00,5.7476E-03
420.00,6.2466E-03
425.00,6.9384E-03
430.00,7.6619E-03
435.00,8.4680E-03
440.00,9.2683E-03
445.00,9.9017E-03
450.00,1.0682E-02
455.00,1.1360E-02
460.00,1.2709E-02
465.00,1.3593E-02
470.00,1.4542E-02
475.00,1.5682E-02
480.00,1.6601E-02
485.00,1.7522E-02
490.00,1.8865E-02
495.00,2.0326E-02
500.00,2.1617E-02
505.00,2.3419E-02
510.00,2.5191E-02
515.00,2.7059E-02
520.00,2.9316E-02
525.00,3.1301E-02
530.00,3.3603E-02
535.00,3.5868E-02
540.00,3.8172E-02
545.00,4.0506E-02
550.00,4.2855E-02
555.00,4.5293E-02
560.00,4.7657E-02
565.00,4.9739E-02
570.00,5.1731E-02
575.00,5.3787E-02
580.00,5.6183E-02
585.00,5.7888E-02
590.00,6.0194E-02
595.00,6.1936E-02
600.00,6.3294E-02
605.00,6.5082E-02
610.00,6.6880E-02
615.00,6.8244E-02
620.00,6.9697E-02
625.00,7.0796E-02
630.00,7.2425E-02
635.00,7.3841E-02
640.00,7.5195E-02
645.00,7.6617E-02
650.00,7.7990E-02
655.00,7.8788E-02
660.00,8.0230E-02
665.00,8.0952E-02
670.00,8.1801E-02
675.00,8.2643E-02
680.00,8.4105E-02
685.00,8.4900E-02
690.00,8.6993E-02
695.00,8.8389E-02
700.00,8.9417E-02
705.00,9.1262E-02
710.00,9.2379E-02
715.00,9.4053E-02
720.00,9.5976E-02
725.00,9.6715E-02
730.00,9.8773E-02
