wavelength,intensity
380.00,3.7141E-03
385.00,4.2705E-03
390.00,4.7055E-03
395.00,5.1596E-03
400.00,5.6865E-03
405.00,6.2739E-03
410.00,6.8867E-03
415.00,7.5115E-03
420.00,8.1724E-03
425.00,8.9774E-03
430.00,9.4847E-03
435.00,1.0484E-02
440.00,1.1340E-02
445.00,1.2098E-02
450.00,1.2975E-02
455.00,1.3706E-02
460.00,1.4859E-02
465.00,1.5929E-02
470.00,1.6851E-02
475.00,1.8020E-02
480.00,1.9328E-02
485.00,2.0133E-02
490.00,2.1255E-02
495.00,2.2548E-02
500.00,2.3949E-02
505.00,2.5649E-02
510.00,2.7479E-02
515.00,2.9323E-02
520.00,3.1339E-02
525.00,3.3522E-02
530.00,3.5608E-02
535.00,3.7790E-02
540.00,3.9830E-02
545.00,4.1938E-02
550.00,4.3983E-02
555.00,4.6197E-02
560.00,4.8252E-02
565.00,5.0069E-02
570.00,5.2069E-02
575.00,5.3616E-02
580.00,5.5142E-02
585.00,5.7021E-02
590.00,5.8654E-02
595.00,5.9890E-02
600.00,6.1202E-02
605.00,6.2536E-02
610.00,6.3642E-02
615.00,6.4814E-02
620.00,6.5533E-02
625.00,6.6494E-02
630.00,6.7684E-02
635.00,6.8690E-02
640.00,6.9579E-02
645.00,7.0777E-02
650.00,7.1266E-02
655.00,7.1999E-02
660.00,7.2868E-02
665.00,7.3355E-02
670.00,7.3756E-02
675.00,7.4696E-02
680.00,7.5037E-02
685.00,7.5963E-02
690.00,7.7103E-02
695.00,7.8178E-02
700.00,7.9145E-02
705.00,8.0727E-02
710.00,8.1698E-02
715.00,8.2993E-02
720.00,8.4247E-02
725.00,8.5205E-02
730.00,8.6554E-02
