wavelength,intensity
380.00,3.4144E-03
385.00,3.6058E-03
390.00,3.9894E-03
395.00,4.0196E-03
400.00,4.7624E-03
405.00,5.6940E-03
410.00,5.8374E-03
415.00,6.3793E-03
420.00,7.1783E-03
425.00,7.8036E-03
430.00,8.4527E-03
435.00,8.9943E-03
440.00,9.9596E-03
445.00,1.0655E-02
450.00,1.1682E-02
455.00,1.2433E-02
460.00,1.3776E-02
465.00,1.4898E-02
470.00,1.5678E-02
475.00,1.7036E-02
480.00,1.7862E-02
485.00,1.8598E-02
490.00,2.0144E-02
495.00,2.1292E-02
500.00,2.2711E-02
505.00,2.4405E-02
510.00,2.6373E-02
515.00,2.8214E-02
520.00,3.0270E-02
525.00,3.1986E-02
530.00,3.4836E-02
535.00,3.6751E-02
540.00,3.8989E-02
545.00,4.1395E-02
550.00,4.3398E-02
555.00,4.5517E-02
560.00,4.7806E-02
565.00,4.9712E-02
570.00,5.1537E-02
575.00,5.3745E-02
580.00,5.5691E-02
585.00,5.7464E-02
590.00,5.9091E-02
595.00,6.1295E-02
600.00,6.2508E-02
605.00,6.4043E-02
610.00,6.5377E-02
615.00,6.6658E-02
620.00,6.7927E-02
625.00,6.8951E-02
630.00,7.0619E-02
635.00,7.1022E-02
640.00,7.2887E-02
645.00,7.4068E-02
650.00,7.5011E-02
655.00,7.6207E-02
660.00,7.6836E-02
665.00,7.7932E-02
670.00,7.7734E-02
675.00,7.9898E-02
680.00,8.0595E-02
685.00,8.0277E-02
690.00,8.3242E-02
695.00,8.4213E-02
700.00,8.4463E-02
705.00,8.7364E-02
710.00,8.7835E-02
715.00,8.9177E-02
720.00,9.1099E-02
725.00,9.1433E-02
730.00,9.4443E-02
