wavelength,intensity
380.00,6.0806E-06
385.00,3.1218E-04
390.00,3.8301E-05
395.00,2.4498E-04
400.00,3.1729E-04
405.00,2.7730E-04
410.00,5.5822E-04
415.00,1.2048E-03
420.00,2.1730E-03
425.00,3.6204E-03
430.00,6.2540E-03
435.00,9.5414E-03
440.00,1.4246E-02
445.00,2.0465E-02
450.00,2.4561E-02
455.00,2.1283E-02
460.00,1.5491E-02
465.00,1.2926E-02
470.00,1.0623E-02
475.00,8.9278E-03
480.00,8.5034E-03
485.00,9.1846E-03
490.00,1.0646E-02
495.00,1.2887E-02
500.00,1.5833E-02
505.00,1.8961E-02
510.00,2.1893E-02
515.00,2.4590E-02
520.00,2.6949E-02
525.00,2.9192E-02
530.00,3.1477E-02
535.00,3.3591E-02
540.00,3.5942E-02
545.00,3.8331E-02
550.00,4.1175E-02
555.00,4.4298E-02
560.00,4.7635E-02
565.00,5.0938E-02
570.00,5.4461E-02
575.00,5.7726E-02
580.00,6.1079E-02
585.00,6.4214E-02
590.00,6.7078E-02
595.00,6.9689E-02
600.00,7.1503E-02
605.00,7.2764E-02
610.00,7.3847E-02
615.00,7.4165E-02
620.00,7.3318E-02
625.00,7.2298E-02
630.00,7.0304E-02
635.00,6.8537E-02
640.00,6.5813E-02
645.00,6.2494E-02
650.00,5.9032E-02
655.00,5.4886E-02
660.00,5.0719E-02
665.00,4.6642E-02
670.00,4.2307E-02
675.00,3.8347E-02
680.00,3.4463E-02
685.00,3.0818E-02
690.00,2.7692E-02
695.00,2.4507E-02
700.00,2.1758E-02
705.00,1.9468E-02
710.00,1.6926E-02
715.00,1.4986E-02
720.00,1.3035E-02
725.00,1.1365E-02
730.00,9.8107E-03
