wavelength,intensity
380.00,0.0000E+00
385.00,0.0000E+00
390.00,3.4832E-05
395.00,0.0000E+00
400.00,0.0000E+00
405.00,2.4279E-04
410.00,4.8243E-04
415.00,1.8763E-03
420.00,4.2418E-03
425.00,7.2651E-03
430.00,1.0621E-02
435.00,1.3750E-02
440.00,1.6943E-02
445.00,1.9318E-02
450.00,1.7988E-02
455.00,1.3138E-02
460.00,1.0017E-02
465.00,8.4105E-03
470.00,7.5480E-03
475.00,7.3101E-03
480.00,8.2195E-03
485.00,9.3972E-03
490.00,1.1196E-02
495.00,1.3486E-02
500.00,1.5860E-02
505.00,1.8182E-02
510.00,2.0523E-02
515.00,2.2843E-02
520.00,2.5438E-02
525.00,2.7570E-02
530.00,3.0340E-02
535.00,3.3072E-02
540.00,3.6259E-02
545.00,3.9458E-02
550.00,4.2562E-02
555.00,4.6428E-02
560.00,4.9821E-02
565.00,5.3298E-02
570.00,5.7044E-02
575.00,6.0343E-02
580.00,6.3567E-02
585.00,6.7068E-02
590.00,6.9502E-02
595.00,7.1808E-02
600.00,7.2889E-02
605.00,7.2994E-02
610.00,7.3247E-02
615.00,7.1828E-02
620.00,6.9641E-02
625.00,6.6885E-02
630.00,6.3816E-02
635.00,6.0221E-02
640.00,5.5904E-02
645.00,5.1303E-02
650.00,4.7180E-02
655.00,4.2527E-02
660.00,3.8394E-02
665.00,3.4260E-02
670.00,3.0493E-02
675.00,2.6752E-02
680.00,2.3642E-02
685.00,2.0444E-02
690.00,1.7988E-02
695.00,1.5492E-02
700.00,1.3417E-02
705.00,1.1640E-02
710.00,9.9455E-03
715.00,8.2470E-03
720.00,7.2422E-03
725.00,5.9370E-03
730.00,5.2375E-03
