wavelength,intensity
380.00,0.0000E+00
385.00,0.0000E+00
390.00,0.0000E+00
395.00,0.0000E+00
400.00,0.0000E+00
405.00,5.0868E-05
410.00,1.6311E-04
415.00,4.9134E-04
420.00,1.1943E-03
425.00,2.5057E-03
430.00,4.7285E-03
435.00,7.8883E-03
440.00,1.3798E-02
445.00,2.1568E-02
450.00,2.1675E-02
455.00,1.4649E-02
460.00,1.0978E-02
465.00,9.2088E-03
470.00,7.2510E-03
475.00,6.7897E-03
480.00,7.3863E-03
485.00,8.4004E-03
490.00,1.0157E-02
495.00,1.2331E-02
500.00,1.4767E-02
505.00,1.7033E-02
510.00,1.9292E-02
515.00,2.1663E-02
520.00,2.4080E-02
525.00,2.6635E-02
530.00,2.9251E-02
535.00,3.2246E-02
540.00,3.5574E-02
545.00,3.8999E-02
550.00,4.2463E-02
555.00,4.6256E-02
560.00,5.0220E-02
565.00,5.3575E-02
570.00,5.6833E-02
575.00,6.0204E-02
580.00,6.3629E-02
585.00,6.6800E-02
590.00,6.9426E-02
595.00,7.1551E-02
600.00,7.3024E-02
605.00,7.4064E-02
610.00,7.4296E-02
615.00,7.3751E-02
620.00,7.2228E-02
625.00,6.9921E-02
630.00,6.6938E-02
635.00,6.3554E-02
640.00,5.9453E-02
645.00,5.5405E-02
650.00,5.0847E-02
655.00,4.6208E-02
660.00,4.1846E-02
665.00,3.7405E-02
670.00,3.3250E-02
675.00,2.9549E-02
680.00,2.5731E-02
685.00,2.2703E-02
690.00,1.9706E-02
695.00,1.7341E-02
700.00,1.5084E-02
705.00,1.2933E-02
710.00,1.1170E-02
715.00,9.5654E-03
720.00,8.3747E-03
725.00,7.0059E-03
730.00,6.2350E-03
