wavelength,intensity
380.00,4.4436E-05
385.00,8.2868E-05
390.00,7.9666E-05
395.00,2.2420E-04
400.00,3.3612E-04
405.00,3.8845E-04
410.00,6.0917E-04
415.00,1.3120E-03
420.00,2.5881E-03
425.00,4.2882E-03
430.00,7.3119E-03
435.00,1.0764E-02
440.00,1.4486E-02
445.00,1.8431E-02
450.00,2.0987E-02
455.00,1.7487E-02
460.00,1.2316E-02
465.00,1.0012E-02
470.00,8.5392E-03
475.00,7.6951E-03
480.00,7.5934E-03
485.00,8.7013E-03
490.00,1.0760E-02
495.00,1.3832E-02
500.00,1.7560E-02
505.00,2.1234E-02
510.00,2.4318E-02
515.00,2.7075E-02
520.00,2.9137E-02
525.00,3.0694E-02
530.00,3.2021E-02
535.00,3.3531E-02
540.00,3.5008E-02
545.00,3.6744E-02
550.00,3.8972E-02
555.00,4.1758E-02
560.00,4.5122E-02
565.00,4.8677E-02
570.00,5.2887E-02
575.00,5.7080E-02
580.00,6.1476E-02
585.00,6.5597E-02
590.00,6.9391E-02
595.00,7.2791E-02
600.00,7.4865E-02
605.00,7.6244E-02
610.00,7.7006E-02
615.00,7.6476E-02
620.00,7.4831E-02
625.00,7.2426E-02
630.00,6.9330E-02
635.00,6.6145E-02
640.00,6.1828E-02
645.00,5.7370E-02
650.00,5.2932E-02
655.00,4.7878E-02
660.00,4.3262E-02
665.00,3.8576E-02
670.00,3.4306E-02
675.00,3.0081E-02
680.00,2.6573E-02
685.00,2.3236E-02
690.00,2.0179E-02
695.00,1.7661E-02
700.00,1.5382E-02
705.00,1.3085E-02
710.00,1.1467E-02
715.00,9.8897E-03
720.00,8.2816E-03
725.00,7.3041E-03
730.00,6.1876E-03
