wavelength,intensity
380.00,4.4568E-03
385.00,4.4150E-03
390.00,4.3409E-03
395.00,4.2414E-03
400.00,4.3339E-03
405.00,4.3781E-03
410.00,4.4956E-03
415.00,4.8201E-03
420.00,5.7157E-03
425.00,7.5917E-03
430.00,1.0897E-02
435.00,1.6211E-02
440.00,2.5163E-02
445.00,3.5040E-02
450.00,3.3394E-02
455.00,2.3157E-02
460.00,1.7311E-02
465.00,1.3936E-02
470.00,1.1075E-02
475.00,9.7547E-03
480.00,9.4965E-03
485.00,1.0146E-02
490.00,1.1931E-02
495.00,1.4930E-02
500.00,1.8615E-02
505.00,2.2484E-02
510.00,2.6396E-02
515.00,2.9866E-02
520.00,3.2902E-02
525.00,3.5323E-02
530.00,3.7349E-02
535.00,3.8621E-02
540.00,4.0212E-02
545.00,4.1618E-02
550.00,4.3121E-02
555.00,4.5179E-02
560.00,4.7920E-02
565.00,5.0677E-02
570.00,5.3808E-02
575.00,5.7522E-02
580.00,6.1223E-02
585.00,6.4502E-02
590.00,6.7194E-02
595.00,6.9134E-02
600.00,6.9825E-02
605.00,6.9558E-02
610.00,6.8358E-02
615.00,6.6212E-02
620.00,6.2793E-02
625.00,5.9067E-02
630.00,5.5198E-02
635.00,5.0555E-02
640.00,4.6147E-02
645.00,4.1812E-02
650.00,3.7431E-02
655.00,3.3534E-02
660.00,2.9904E-02
665.00,2.6502E-02
670.00,2.3391E-02
675.00,2.0832E-02
680.00,1.8622E-02
685.00,1.6691E-02
690.00,1.5006E-02
695.00,1.3807E-02
700.00,1.2592E-02
705.00,1.1630E-02
710.00,1.0837E-02
715.00,1.0100E-02
720.00,9.7372E-03
725.00,9.3431E-03
730.00,9.2213E-03
