wavelength,intensity
380.00,0.0000E+00
385.00,8.7323E-07
390.00,0.0000E+00
395.00,0.0000E+00
400.00,2.7467E-05
405.00,1.6358E-04
410.00,1.6881E-04
415.00,9.2005E-04
420.00,2.7153E-03
425.00,4.9947E-03
430.00,8.6110E-03
435.00,1.2316E-02
440.00,1.7231E-02
445.00,2.2000E-02
450.00,2.2318E-02
455.00,1.5937E-02
460.00,1.0229E-02
465.00,7.5545E-03
470.00,5.5787E-03
475.00,4.6968E-03
480.00,4.1299E-03
485.00,4.5604E-03
490.00,5.3405E-03
495.00,7.2869E-03
500.00,1.0996E-02
505.00,1.5726E-02
510.00,2.1335E-02
515.00,2.7710E-02
520.00,3.2996E-02
525.00,3.8462E-02
530.00,4.1726E-02
535.00,4.4630E-02
540.00,4.6014E-02
545.00,4.7436E-02
550.00,4.8105E-02
555.00,4.8468E-02
560.00,4.8878E-02
565.00,4.8099E-02
570.00,4.7210E-02
575.00,4.6636E-02
580.00,4.6144E-02
585.00,4.5652E-02
590.00,4.6260E-02
595.00,4.8628E-02
600.00,5.3491E-02
605.00,6.3489E-02
610.00,8.0745E-02
615.00,1.1005E-01
620.00,1.4917E-01
625.00,1.4563E-01
630.00,7.7608E-02
635.00,4.1695E-02
640.00,2.6945E-02
645.00,2.0012E-02
650.00,1.6776E-02
655.00,1.4330E-02
660.00,1.2678E-02
665.00,1.1103E-02
670.00,9.2985E-03
675.00,8.0561E-03
680.00,7.1635E-03
685.00,6.3366E-03
690.00,5.2469E-03
695.00,4.7548E-03
700.00,4.0099E-03
705.00,3.0596E-03
710.00,2.7034E-03
715.00,2.3291E-03
720.00,2.2576E-03
725.00,1.2516E-03
730.00,8.4340E-04
