wavelength,intensity
380.00,0.0000E+00
385.00,0.0000E+00
390.00,0.0000E+00
395.00,0.0000E+00
400.00,0.0000E+00
405.00,0.0000E+00
410.00,0.0000E+00
415.00,9.5820E-04
420.00,3.1841E-03
425.00,6.9908E-03
430.00,1.2136E-02
435.00,1.6177E-02
440.00,2.0720E-02
445.00,2.5408E-02
450.00,2.3503E-02
455.00,1.5255E-02
460.00,1.0758E-02
465.00,8.5571E-03
470.00,6.6971E-03
475.00,5.8520E-03
480.00,6.4993E-03
485.00,7.7478E-03
490.00,1.0313E-02
495.00,1.3787E-02
500.00,1.8513E-02
505.00,2.2872E-02
510.00,2.7024E-02
515.00,3.0641E-02
520.00,3.3477E-02
525.00,3.5435E-02
530.00,3.7180E-02
535.00,3.8574E-02
540.00,4.0202E-02
545.00,4.1767E-02
550.00,4.3703E-02
555.00,4.5974E-02
560.00,4.8402E-02
565.00,5.0867E-02
570.00,5.3788E-02
575.00,5.6879E-02
580.00,6.0035E-02
585.00,6.3090E-02
590.00,6.5331E-02
595.00,6.7105E-02
600.00,6.8181E-02
605.00,6.8875E-02
610.00,6.8219E-02
615.00,6.7110E-02
620.00,6.5222E-02
625.00,6.2437E-02
630.00,5.9352E-02
635.00,5.5606E-02
640.00,5.1883E-02
645.00,4.7719E-02
650.00,4.3678E-02
655.00,3.9380E-02
660.00,3.5229E-02
665.00,3.1687E-02
670.00,2.7783E-02
675.00,2.4355E-02
680.00,2.1295E-02
685.00,1.8908E-02
690.00,1.5946E-02
695.00,1.3818E-02
700.00,1.1545E-02
705.00,9.6204E-03
710.00,8.2156E-03
715.00,7.2310E-03
720.00,5.8568E-03
725.00,4.5095E-03
730.00,3.7404E-03
