wavelength,intensity
380.00,1.5967E-04
385.00,1.3966E-04
390.00,1.5310E-04
395.00,1.6919E-04
400.00,2.2054E-04
405.00,3.0278E-04
410.00,3.0522E-04
415.00,5.8639E-04
420.00,1.0375E-03
425.00,2.1464E-03
430.00,3.9611E-03
435.00,6.7255E-03
440.00,1.1056E-02
445.00,1.8196E-02
450.00,2.6805E-02
455.00,2.9927E-02
460.00,2.4631E-02
465.00,1.8709E-02
470.00,1.5184E-02
475.00,1.2718E-02
480.00,1.0776E-02
485.00,9.8127E-03
490.00,9.8461E-03
495.00,1.0617E-02
500.00,1.2670E-02
505.00,1.5733E-02
510.00,1.9315E-02
515.00,2.3264E-02
520.00,2.7392E-02
525.00,3.1260E-02
530.00,3.4592E-02
535.00,3.7757E-02
540.00,4.0722E-02
545.00,4.3398E-02
550.00,4.6156E-02
555.00,4.8807E-02
560.00,5.1911E-02
565.00,5.4502E-02
570.00,5.7054E-02
575.00,5.9632E-02
580.00,6.2009E-02
585.00,6.4013E-02
590.00,6.5816E-02
595.00,6.7208E-02
600.00,6.7855E-02
605.00,6.8077E-02
610.00,6.8005E-02
615.00,6.6784E-02
620.00,6.4566E-02
625.00,6.2099E-02
630.00,5.8862E-02
635.00,5.5145E-02
640.00,5.1273E-02
645.00,4.7111E-02
650.00,4.2935E-02
655.00,3.8701E-02
660.00,3.4764E-02
665.00,3.1019E-02
670.00,2.7278E-02
675.00,2.3952E-02
680.00,2.0988E-02
685.00,1.8327E-02
690.00,1.5879E-02
695.00,1.3698E-02
700.00,1.1977E-02
705.00,1.0241E-02
710.00,8.8385E-03
715.00,7.6021E-03
720.00,6.6801E-03
725.00,5.7179E-03
730.00,4.9672E-03
