wavelength,intensity
380.00,0.0000E+00
385.00,0.0000E+00
390.00,0.0000E+00
395.00,0.0000E+00
400.00,1.1147E-06
405.00,2.8977E-04
410.00,2.2367E-04
415.00,1.1455E-03
420.00,2.7009E-03
425.00,5.1202E-03
430.00,8.9800E-03
435.00,1.3547E-02
440.00,1.8254E-02
445.00,2.3905E-02
450.00,2.5801E-02
455.00,1.9247E-02
460.00,1.3327E-02
465.00,1.0900E-02
470.00,8.9142E-03
475.00,7.4674E-03
480.00,7.6832E-03
485.00,8.6755E-03
490.00,1.0658E-02
495.00,1.4011E-02
500.00,1.8294E-02
505.00,2.2609E-02
510.00,2.6382E-02
515.00,2.9649E-02
520.00,3.2609E-02
525.00,3.4937E-02
530.00,3.6650E-02
535.00,3.8198E-02
540.00,3.9967E-02
545.00,4.1967E-02
550.00,4.3640E-02
555.00,4.5998E-02
560.00,4.8742E-02
565.00,5.1219E-02
570.00,5.4030E-02
575.00,5.7094E-02
580.00,6.0117E-02
585.00,6.2810E-02
590.00,6.5589E-02
595.00,6.7487E-02
600.00,6.8519E-02
605.00,6.8864E-02
610.00,6.8582E-02
615.00,6.7161E-02
620.00,6.5201E-02
625.00,6.2446E-02
630.00,5.9533E-02
635.00,5.6040E-02
640.00,5.1744E-02
645.00,4.7783E-02
650.00,4.3384E-02
655.00,3.9279E-02
660.00,3.5070E-02
665.00,3.1388E-02
670.00,2.7641E-02
675.00,2.4160E-02
680.00,2.1283E-02
685.00,1.8585E-02
690.00,1.6000E-02
695.00,1.3887E-02
700.00,1.2322E-02
705.00,1.0501E-02
710.00,8.6971E-03
715.00,7.7387E-03
720.00,6.9215E-03
725.00,5.6316E-03
730.00,5.1627E-03
