wavelength,intensity
380.00,2.0836E-04
385.00,3.4439E-04
390.00,3.4564E-04
395.00,0.0000E+00
400.00,2.0345E-04
405.00,3.2205E-04
410.00,5.7448E-04
415.00,1.0608E-03
420.00,1.6435E-03
425.00,3.3115E-03
430.00,5.5995E-03
435.00,9.6052E-03
440.00,1.6395E-02
445.00,2.7350E-02
450.00,3.5490E-02
455.00,3.0392E-02
460.00,2.1908E-02
465.00,1.7951E-02
470.00,1.4798E-02
475.00,1.2018E-02
480.00,1.1422E-02
485.00,1.1586E-02
490.00,1.3106E-02
495.00,1.5400E-02
500.00,1.8556E-02
505.00,2.1913E-02
510.00,2.4715E-02
515.00,2.7953E-02
520.00,3.0446E-02
525.00,3.2651E-02
530.00,3.5081E-02
535.00,3.7667E-02
540.00,4.0026E-02
545.00,4.2245E-02
550.00,4.5011E-02
555.00,4.7756E-02
560.00,5.0876E-02
565.00,5.3648E-02
570.00,5.6531E-02
575.00,5.8852E-02
580.00,6.1355E-02
585.00,6.3099E-02
590.00,6.4909E-02
595.00,6.5593E-02
600.00,6.6000E-02
605.00,6.6081E-02
610.00,6.5522E-02
615.00,6.3872E-02
620.00,6.2334E-02
625.00,5.9902E-02
630.00,5.7238E-02
635.00,5.4488E-02
640.00,5.0979E-02
645.00,4.6978E-02
650.00,4.3380E-02
655.00,3.9668E-02
660.00,3.5930E-02
665.00,3.2325E-02
670.00,2.9136E-02
675.00,2.5687E-02
680.00,2.2994E-02
685.00,1.9887E-02
690.00,1.7893E-02
695.00,1.5697E-02
700.00,1.3945E-02
705.00,1.1731E-02
710.00,1.0372E-02
715.00,9.2368E-03
720.00,7.9028E-03
725.00,6.5799E-03
730.00,6.1400E-03
