wavelength,intensity
380.00,2.0915E-04
385.00,2.3447E-04
390.00,3.1664E-04
395.00,4.9366E-04
400.00,8.6927E-04
405.00,1.6343E-03
410.00,3.8445E-03
415.00,8.9450E-03
420.00,1.9333E-02
425.00,3.5557E-02
430.00,5.3672E-02
435.00,6.8817E-02
440.00,7.6154E-02
445.00,6.5361E-02
450.00,4.0792E-02
455.00,2.1876E-02
460.00,1.2906E-02
465.00,8.7086E-03
470.00,6.2690E-03
475.00,5.2219E-03
480.00,5.1094E-03
485.00,5.7875E-03
490.00,7.7700E-03
495.00,1.1427E-02
500.00,1.6960E-02
505.00,2.3673E-02
510.00,3.0990E-02
515.00,3.7921E-02
520.00,4.3799E-02
525.00,4.8762E-02
530.00,5.2144E-02
535.00,5.4822E-02
540.00,5.6739E-02
545.00,5.7881E-02
550.00,5.8715E-02
555.00,5.9317E-02
560.00,5.9585E-02
565.00,5.9280E-02
570.00,5.8430E-02
575.00,5.7385E-02
580.00,5.5980E-02
585.00,5.4118E-02
590.00,5.1780E-02
595.00,4.9165E-02
600.00,4.6347E-02
605.00,4.3350E-02
610.00,4.0191E-02
615.00,3.7026E-02
620.00,3.3923E-02
625.00,3.0868E-02
630.00,2.7944E-02
635.00,2.5243E-02
640.00,2.2815E-02
645.00,2.0287E-02
650.00,1.8107E-02
655.00,1.6017E-02
660.00,1.4109E-02
665.00,1.2434E-02
670.00,1.0760E-02
675.00,9.6117E-03
680.00,8.3787E-03
685.00,7.2930E-03
690.00,6.2969E-03
695.00,5.6235E-03
700.00,4.8391E-03
705.00,4.2135E-03
710.00,3.7300E-03
715.00,3.2314E-03
720.00,2.6819E-03
725.00,2.2291E-03
730.00,2.0894E-03
