wavelength,intensity
380.00,8.7093E-05
385.00,1.4313E-04
390.00,1.3860E-04
395.00,1.2310E-04
400.00,1.7186E-04
405.00,2.3989E-04
410.00,2.5671E-04
415.00,4.6960E-04
420.00,9.4431E-04
425.00,1.8204E-03
430.00,3.3524E-03
435.00,5.7461E-03
440.00,9.0489E-03
445.00,1.4380E-02
450.00,2.1606E-02
455.00,2.4356E-02
460.00,2.0011E-02
465.00,1.5467E-02
470.00,1.2923E-02
475.00,1.1096E-02
480.00,9.7304E-03
485.00,9.1758E-03
490.00,9.4405E-03
495.00,1.0614E-02
500.00,1.2885E-02
505.00,1.6221E-02
510.00,2.0291E-02
515.00,2.4510E-02
520.00,2.8772E-02
525.00,3.2824E-02
530.00,3.6347E-02
535.00,3.9467E-02
540.00,4.2140E-02
545.00,4.4618E-02
550.00,4.6960E-02
555.00,4.9260E-02
560.00,5.1670E-02
565.00,5.3827E-02
570.00,5.5944E-02
575.00,5.8078E-02
580.00,6.0100E-02
585.00,6.1859E-02
590.00,6.3609E-02
595.00,6.4920E-02
600.00,6.5786E-02
605.00,6.6482E-02
610.00,6.7009E-02
615.00,6.6930E-02
620.00,6.5786E-02
625.00,6.3907E-02
630.00,6.1207E-02
635.00,5.7788E-02
640.00,5.4057E-02
645.00,4.9968E-02
650.00,4.5792E-02
655.00,4.1504E-02
660.00,3.7523E-02
665.00,3.3367E-02
670.00,2.9658E-02
675.00,2.6144E-02
680.00,2.3150E-02
685.00,2.0358E-02
690.00,1.7800E-02
695.00,1.5432E-02
700.00,1.3485E-02
705.00,1.1593E-02
710.00,9.9473E-03
715.00,8.6491E-03
720.00,7.5617E-03
725.00,6.5108E-03
730.00,5.6810E-03
