wavelength,intensity
380.00,0.0000E+00
385.00,0.0000E+00
390.00,0.0000E+00
395.00,0.0000E+00
400.00,7.6706E-05
405.00,1.4140E-04
410.00,4.4253E-04
415.00,1.2797E-03
420.00,2.6779E-03
425.00,5.4399E-03
430.00,9.7464E-03
435.00,1.5864E-02
440.00,2.5203E-02
445.00,3.2089E-02
450.00,2.7902E-02
455.00,1.9513E-02
460.00,1.3746E-02
465.00,9.6525E-03
470.00,7.0089E-03
475.00,5.5845E-03
480.00,5.0652E-03
485.00,5.2840E-03
490.00,6.4320E-03
495.00,8.8123E-03
500.00,1.2280E-02
505.00,1.6502E-02
510.00,2.1273E-02
515.00,2.6241E-02
520.00,3.0660E-02
525.00,3.4936E-02
530.00,3.8454E-02
535.00,4.1447E-02
540.00,4.3953E-02
545.00,4.6490E-02
550.00,4.8547E-02
555.00,5.0734E-02
560.00,5.2807E-02
565.00,5.4298E-02
570.00,5.6022E-02
575.00,5.7303E-02
580.00,5.8935E-02
585.00,6.0035E-02
590.00,6.1085E-02
595.00,6.1907E-02
600.00,6.2439E-02
605.00,6.2975E-02
610.00,6.3270E-02
615.00,6.2985E-02
620.00,6.2094E-02
625.00,6.1242E-02
630.00,6.0166E-02
635.00,5.8368E-02
640.00,5.6062E-02
645.00,5.3501E-02
650.00,5.0490E-02
655.00,4.7488E-02
660.00,4.3984E-02
665.00,4.0490E-02
670.00,3.6715E-02
675.00,3.3506E-02
680.00,3.0143E-02
685.00,2.7039E-02
690.00,2.4122E-02
695.00,2.1417E-02
700.00,1.8876E-02
705.00,1.6630E-02
710.00,1.4468E-02
715.00,1.2486E-02
720.00,1.0966E-02
725.00,9.5300E-03
730.00,8.0680E-03
