wavelength,intensity
380.00,0.0000E+00
385.00,1.0243E-04
390.00,0.0000E+00
395.00,0.0000E+00
400.00,2.2302E-04
405.00,0.0000E+00
410.00,2.4370E-04
415.00,8.2772E-04
420.00,8.6428E-04
425.00,1.2589E-03
430.00,2.7764E-03
435.00,4.0850E-03
440.00,7.0429E-03
445.00,1.1844E-02
450.00,1.9526E-02
455.00,2.8027E-02
460.00,2.8167E-02
465.00,2.3150E-02
470.00,2.0509E-02
475.00,1.9247E-02
480.00,1.6122E-02
485.00,1.5149E-02
490.00,1.5195E-02
495.00,1.6168E-02
500.00,1.7546E-02
505.00,1.9369E-02
510.00,2.1185E-02
515.00,2.3618E-02
520.00,2.5121E-02
525.00,2.7501E-02
530.00,2.9682E-02
535.00,3.2398E-02
540.00,3.5328E-02
545.00,3.8119E-02
550.00,4.1725E-02
555.00,4.5118E-02
560.00,4.9092E-02
565.00,5.2710E-02
570.00,5.6213E-02
575.00,5.9920E-02
580.00,6.3044E-02
585.00,6.6844E-02
590.00,6.9725E-02
595.00,7.1791E-02
600.00,7.2688E-02
605.00,7.2809E-02
610.00,7.2902E-02
615.00,7.1787E-02
620.00,6.9213E-02
625.00,6.6869E-02
630.00,6.2958E-02
635.00,6.0263E-02
640.00,5.5863E-02
645.00,5.1566E-02
650.00,4.7502E-02
655.00,4.2376E-02
660.00,3.8340E-02
665.00,3.3784E-02
670.00,3.0389E-02
675.00,2.6920E-02
680.00,2.4039E-02
685.00,2.1138E-02
690.00,1.7902E-02
695.00,1.5314E-02
700.00,1.3817E-02
705.00,1.1602E-02
710.00,9.9089E-03
715.00,8.4162E-03
720.00,7.2277E-03
725.00,6.4677E-03
730.00,5.6460E-03
