wavelength,intensity
380.00,3.7431E-04
385.00,2.8931E-04
390.00,1.1849E-04
395.00,1.1290E-05
400.00,2.8242E-04
405.00,4.8670E-04
410.00,4.0766E-04
415.00,1.1774E-03
420.00,3.1063E-03
425.00,5.8689E-03
430.00,9.3048E-03
435.00,1.4513E-02
440.00,2.2100E-02
445.00,2.9113E-02
450.00,2.5476E-02
455.00,1.7999E-02
460.00,1.4157E-02
465.00,1.1106E-02
470.00,8.9324E-03
475.00,8.5164E-03
480.00,9.0707E-03
485.00,1.0504E-02
490.00,1.2355E-02
495.00,1.5110E-02
500.00,1.7855E-02
505.00,2.0338E-02
510.00,2.3088E-02
515.00,2.5472E-02
520.00,2.7914E-02
525.00,3.0633E-02
530.00,3.3168E-02
535.00,3.6226E-02
540.00,3.9469E-02
545.00,4.2523E-02
550.00,4.5639E-02
555.00,4.8729E-02
560.00,5.2191E-02
565.00,5.4658E-02
570.00,5.7536E-02
575.00,5.9803E-02
580.00,6.1829E-02
585.00,6.3881E-02
590.00,6.5478E-02
595.00,6.6652E-02
600.00,6.7221E-02
605.00,6.7115E-02
610.00,6.6870E-02
615.00,6.5328E-02
620.00,6.3712E-02
625.00,6.1831E-02
630.00,5.8423E-02
635.00,5.5846E-02
640.00,5.2008E-02
645.00,4.7992E-02
650.00,4.4484E-02
655.00,4.0162E-02
660.00,3.6288E-02
665.00,3.2820E-02
670.00,2.9348E-02
675.00,2.6516E-02
680.00,2.2927E-02
685.00,2.0476E-02
690.00,1.8245E-02
695.00,1.6135E-02
700.00,1.4496E-02
705.00,1.2010E-02
710.00,1.0328E-02
715.00,9.4448E-03
720.00,8.5857E-03
725.00,7.2201E-03
730.00,6.9208E-03
