wavelength,intensity
380.00,0.0000E+00
385.00,0.0000E+00
390.00,0.0000E+00
395.00,0.0000E+00
400.00,0.0000E+00
405.00,0.0000E+00
410.00,0.0000E+00
415.00,6.2673E-04
420.00,1.5848E-03
425.00,3.0249E-03
430.00,6.1043E-03
435.00,1.0265E-02
440.00,1.7379E-02
445.00,2.9227E-02
450.00,3.8128E-02
455.00,3.3325E-02
460.00,2.4224E-02
465.00,1.9395E-02
470.00,1.5997E-02
475.00,1.2791E-02
480.00,1.1698E-02
485.00,1.2225E-02
490.00,1.3595E-02
495.00,1.5717E-02
500.00,1.9079E-02
505.00,2.2339E-02
510.00,2.5529E-02
515.00,2.8601E-02
520.00,3.1086E-02
525.00,3.3571E-02
530.00,3.5655E-02
535.00,3.7980E-02
540.00,4.0310E-02
545.00,4.2716E-02
550.00,4.4997E-02
555.00,4.7663E-02
560.00,5.0753E-02
565.00,5.3347E-02
570.00,5.5945E-02
575.00,5.8379E-02
580.00,6.0343E-02
585.00,6.2081E-02
590.00,6.3936E-02
595.00,6.5014E-02
600.00,6.5362E-02
605.00,6.5331E-02
610.00,6.4984E-02
615.00,6.4026E-02
620.00,6.1915E-02
625.00,5.9831E-02
630.00,5.7415E-02
635.00,5.4698E-02
640.00,5.1420E-02
645.00,4.7477E-02
650.00,4.4227E-02
655.00,4.0590E-02
660.00,3.6779E-02
665.00,3.3003E-02
670.00,2.9776E-02
675.00,2.6401E-02
680.00,2.3601E-02
685.00,2.1000E-02
690.00,1.8190E-02
695.00,1.6049E-02
700.00,1.4033E-02
705.00,1.2185E-02
710.00,1.0673E-02
715.00,9.1011E-03
720.00,7.7787E-03
725.00,6.4335E-03
730.00,5.7206E-03
