wavelength,intensity
380.00,1.5866E-04
385.00,1.5704E-04
390.00,1.2875E-04
395.00,1.6187E-04
400.00,2.4477E-04
405.00,2.8164E-04
410.00,3.4905E-04
415.00,5.5802E-04
420.00,1.0733E-03
425.00,2.1408E-03
430.00,3.9414E-03
435.00,6.5478E-03
440.00,9.9957E-03
445.00,1.4866E-02
450.00,2.1679E-02
455.00,2.7623E-02
460.00,2.8355E-02
465.00,2.4674E-02
470.00,2.0720E-02
475.00,1.7996E-02
480.00,1.5903E-02
485.00,1.4013E-02
490.00,1.3258E-02
495.00,1.3553E-02
500.00,1.4853E-02
505.00,1.7349E-02
510.00,2.0433E-02
515.00,2.4069E-02
520.00,2.7803E-02
525.00,3.1367E-02
530.00,3.4632E-02
535.00,3.7453E-02
540.00,4.0294E-02
545.00,4.3062E-02
550.00,4.5785E-02
555.00,4.8587E-02
560.00,5.1682E-02
565.00,5.4451E-02
570.00,5.7046E-02
575.00,5.9717E-02
580.00,6.2136E-02
585.00,6.4229E-02
590.00,6.5939E-02
595.00,6.7128E-02
600.00,6.7519E-02
605.00,6.7496E-02
610.00,6.6661E-02
615.00,6.5091E-02
620.00,6.2732E-02
625.00,5.9801E-02
630.00,5.6781E-02
635.00,5.3281E-02
640.00,4.9254E-02
645.00,4.5394E-02
650.00,4.1279E-02
655.00,3.7435E-02
660.00,3.3578E-02
665.00,2.9704E-02
670.00,2.6193E-02
675.00,2.3148E-02
680.00,2.0268E-02
685.00,1.7723E-02
690.00,1.5417E-02
695.00,1.3416E-02
700.00,1.1665E-02
705.00,1.0157E-02
710.00,8.6455E-03
715.00,7.5088E-03
720.00,6.5077E-03
725.00,5.6413E-03
730.00,4.9207E-03
