wavelength,intensity
380.00,0.0000E+00
385.00,2.9394E-04
390.00,4.7327E-04
395.00,0.0000E+00
400.00,4.7495E-05
405.00,4.7807E-04
410.00,6.8669E-04
415.00,8.2459E-04
420.00,1.9661E-03
425.00,3.0057E-03
430.00,4.7856E-03
435.00,7.2968E-03
440.00,1.1188E-02
445.00,1.6608E-02
450.00,2.0673E-02
455.00,1.8240E-02
460.00,1.4793E-02
465.00,1.2919E-02
470.00,1.1874E-02
475.00,1.0919E-02
480.00,1.0744E-02
485.00,1.1473E-02
490.00,1.2838E-02
495.00,1.4475E-02
500.00,1.7030E-02
505.00,1.9280E-02
510.00,2.1656E-02
515.00,2.3686E-02
520.00,2.5935E-02
525.00,2.8258E-02
530.00,3.0304E-02
535.00,3.2766E-02
540.00,3.5533E-02
545.00,3.8314E-02
550.00,4.1191E-02
555.00,4.4532E-02
560.00,4.8379E-02
565.00,5.2007E-02
570.00,5.5823E-02
575.00,5.9957E-02
580.00,6.4239E-02
585.00,6.8035E-02
590.00,7.1523E-02
595.00,7.3616E-02
600.00,7.4975E-02
605.00,7.6038E-02
610.00,7.4748E-02
615.00,7.2874E-02
620.00,6.9593E-02
625.00,6.6391E-02
630.00,6.2217E-02
635.00,5.7827E-02
640.00,5.2826E-02
645.00,4.7497E-02
650.00,4.3028E-02
655.00,3.8080E-02
660.00,3.4165E-02
665.00,2.9838E-02
670.00,2.5945E-02
675.00,2.2432E-02
680.00,1.9246E-02
685.00,1.6918E-02
690.00,1.4526E-02
695.00,1.2696E-02
700.00,1.0901E-02
705.00,8.8504E-03
710.00,7.6712E-03
715.00,6.6212E-03
720.00,5.7338E-03
725.00,4.6272E-03
730.00,4.2692E-03
