wavelength,intensity
380.00,0.0000E+00
385.00,0.0000E+00
390.00,0.0000E+00
395.00,0.0000E+00
400.00,0.0000E+00
405.00,0.0000E+00
410.00,0.0000E+00
415.00,5.1744E-05
420.00,3.4166E-04
425.00,6.4548E-04
430.00,2.2652E-03
435.00,3.6849E-03
440.00,6.8043E-03
445.00,1.2153E-02
450.00,2.0301E-02
455.00,2.1974E-02
460.00,1.7822E-02
465.00,1.4203E-02
470.00,1.3293E-02
475.00,1.0739E-02
480.00,1.0144E-02
485.00,1.0300E-02
490.00,1.1130E-02
495.00,1.2748E-02
500.00,1.4549E-02
505.00,1.6763E-02
510.00,1.9225E-02
515.00,2.1505E-02
520.00,2.4228E-02
525.00,2.6557E-02
530.00,2.9533E-02
535.00,3.2354E-02
540.00,3.5477E-02
545.00,3.9250E-02
550.00,4.2289E-02
555.00,4.6477E-02
560.00,5.0541E-02
565.00,5.3830E-02
570.00,5.7337E-02
575.00,6.1146E-02
580.00,6.4172E-02
585.00,6.7292E-02
590.00,7.0446E-02
595.00,7.2920E-02
600.00,7.2943E-02
605.00,7.3771E-02
610.00,7.3071E-02
615.00,7.2103E-02
620.00,7.0175E-02
625.00,6.7396E-02
630.00,6.4068E-02
635.00,6.0186E-02
640.00,5.6594E-02
645.00,5.1597E-02
650.00,4.7069E-02
655.00,4.2939E-02
660.00,3.8174E-02
665.00,3.4452E-02
670.00,3.0660E-02
675.00,2.6940E-02
680.00,2.3477E-02
685.00,2.0080E-02
690.00,1.7937E-02
695.00,1.5637E-02
700.00,1.2887E-02
705.00,1.1419E-02
710.00,9.5701E-03
715.00,7.8822E-03
720.00,6.6166E-03
725.00,5.4318E-03
730.00,4.5253E-03
