wavelength,intensity
380.00,0.0000E+00
385.00,0.0000E+00
390.00,0.0000E+00
395.00,0.0000E+00
400.00,0.0000E+00
405.00,0.0000E+00
410.00,1.5371E-04
415.00,4.7465E-04
420.00,1.3459E-03
425.00,2.9096E-03
430.00,5.3394E-03
435.00,8.6467E-03
440.00,1.2906E-02
445.00,1.8828E-02
450.00,2.6299E-02
455.00,2.8078E-02
460.00,2.2204E-02
465.00,1.6622E-02
470.00,1.3600E-02
475.00,1.1294E-02
480.00,9.5952E-03
485.00,8.9196E-03
490.00,9.1485E-03
495.00,1.0116E-02
500.00,1.2211E-02
505.00,1.5365E-02
510.00,1.9009E-02
515.00,2.2995E-02
520.00,2.7004E-02
525.00,3.0771E-02
530.00,3.4329E-02
535.00,3.7626E-02
540.00,4.0578E-02
545.00,4.3511E-02
550.00,4.6311E-02
555.00,4.9320E-02
560.00,5.2518E-02
565.00,5.5241E-02
570.00,5.8138E-02
575.00,6.0746E-02
580.00,6.3337E-02
585.00,6.5406E-02
590.00,6.7151E-02
595.00,6.8193E-02
600.00,6.8308E-02
605.00,6.7822E-02
610.00,6.6685E-02
615.00,6.4850E-02
620.00,6.2444E-02
625.00,5.9676E-02
630.00,5.6220E-02
635.00,5.2892E-02
640.00,4.9149E-02
645.00,4.5005E-02
650.00,4.1154E-02
655.00,3.7190E-02
660.00,3.3682E-02
665.00,2.9980E-02
670.00,2.6566E-02
675.00,2.3457E-02
680.00,2.0586E-02
685.00,1.8053E-02
690.00,1.5790E-02
695.00,1.3718E-02
700.00,1.1888E-02
705.00,1.0206E-02
710.00,8.9503E-03
715.00,7.6624E-03
720.00,6.5016E-03
725.00,5.6252E-03
730.00,4.7490E-03
