wavelength,intensity
380.00,0.0000E+00
385.00,0.0000E+00
390.00,1.8360E-04
395.00,0.0000E+00
400.00,0.0000E+00
405.00,4.3960E-05
410.00,0.0000E+00
415.00,4.6579E-05
420.00,1.2943E-03
425.00,2.5884E-03
430.00,5.2803E-03
435.00,8.8468E-03
440.00,1.2779E-02
445.00,1.8084E-02
450.00,2.4291E-02
455.00,2.3972E-02
460.00,1.6906E-02
465.00,1.1876E-02
470.00,1.0690E-02
475.00,8.5994E-03
480.00,8.4761E-03
485.00,9.3616E-03
490.00,1.0532E-02
495.00,1.2445E-02
500.00,1.4837E-02
505.00,1.6891E-02
510.00,1.9288E-02
515.00,2.2104E-02
520.00,2.4499E-02
525.00,2.6724E-02
530.00,2.9840E-02
535.00,3.2283E-02
540.00,3.5824E-02
545.00,3.8890E-02
550.00,4.2449E-02
555.00,4.5938E-02
560.00,5.0027E-02
565.00,5.3173E-02
570.00,5.7017E-02
575.00,6.0497E-02
580.00,6.4623E-02
585.00,6.6999E-02
590.00,7.0315E-02
595.00,7.1846E-02
600.00,7.4009E-02
605.00,7.4029E-02
610.00,7.3336E-02
615.00,7.1842E-02
620.00,7.1097E-02
625.00,6.7910E-02
630.00,6.4405E-02
635.00,6.0944E-02
640.00,5.7061E-02
645.00,5.2456E-02
650.00,4.8412E-02
655.00,4.4314E-02
660.00,3.9782E-02
665.00,3.4767E-02
670.00,3.1472E-02
675.00,2.7902E-02
680.00,2.4989E-02
685.00,2.1749E-02
690.00,1.9171E-02
695.00,1.6266E-02
700.00,1.4280E-02
705.00,1.2480E-02
710.00,1.0517E-02
715.00,8.8343E-03
720.00,7.3457E-03
725.00,6.8615E-03
730.00,5.0293E-03
