wavelength,intensity
380.00,5.8511E-04
385.00,5.4488E-04
390.00,6.2593E-04
395.00,3.1521E-04
400.00,4.1435E-04
405.00,8.6914E-04
410.00,1.3824E-03
415.00,2.2624E-03
420.00,4.3077E-03
425.00,7.0982E-03
430.00,1.2558E-02
435.00,2.0132E-02
440.00,3.1179E-02
445.00,4.6929E-02
450.00,5.8537E-02
455.00,5.4429E-02
460.00,4.4482E-02
465.00,3.6132E-02
470.00,3.0234E-02
475.00,2.5410E-02
480.00,2.2700E-02
485.00,2.2070E-02
490.00,2.3113E-02
495.00,2.5328E-02
500.00,2.8507E-02
505.00,3.1831E-02
510.00,3.4555E-02
515.00,3.7119E-02
520.00,3.9883E-02
525.00,4.1340E-02
530.00,4.3350E-02
535.00,4.4686E-02
540.00,4.6905E-02
545.00,4.8039E-02
550.00,4.9802E-02
555.00,5.1039E-02
560.00,5.2429E-02
565.00,5.3649E-02
570.00,5.4571E-02
575.00,5.5367E-02
580.00,5.5480E-02
585.00,5.6569E-02
590.00,5.6575E-02
595.00,5.6095E-02
600.00,5.5286E-02
605.00,5.4136E-02
610.00,5.2811E-02
615.00,4.9985E-02
620.00,4.6707E-02
625.00,4.3597E-02
630.00,4.0336E-02
635.00,3.7345E-02
640.00,3.3706E-02
645.00,3.0732E-02
650.00,2.7403E-02
655.00,2.4159E-02
660.00,2.1330E-02
665.00,1.8586E-02
670.00,1.6270E-02
675.00,1.4159E-02
680.00,1.2175E-02
685.00,1.0386E-02
690.00,8.9723E-03
695.00,8.2771E-03
700.00,6.5242E-03
705.00,5.7158E-03
710.00,5.1461E-03
715.00,4.5083E-03
720.00,3.9635E-03
725.00,3.0504E-03
730.00,3.1077E-03
