wavelength,intensity
380.00,1.4992E-04
385.00,1.9491E-04
390.00,2.7934E-04
395.00,3.5607E-04
400.00,5.5768E-04
405.00,1.0152E-03
410.00,1.9401E-03
415.00,4.3310E-03
420.00,9.5626E-03
425.00,1.9473E-02
430.00,3.5425E-02
435.00,5.7484E-02
440.00,8.6772E-02
445.00,1.0115E-01
450.00,9.1814E-02
455.00,5.6994E-02
460.00,3.5034E-02
465.00,2.2892E-02
470.00,1.4355E-02
475.00,9.6347E-03
480.00,7.5783E-03
485.00,6.6862E-03
490.00,7.2892E-03
495.00,9.8329E-03
500.00,1.4245E-02
505.00,2.0481E-02
510.00,2.7700E-02
515.00,3.5139E-02
520.00,4.1382E-02
525.00,4.5727E-02
530.00,4.8614E-02
535.00,5.0765E-02
540.00,5.2547E-02
545.00,5.4001E-02
550.00,5.5098E-02
555.00,5.6230E-02
560.00,5.7249E-02
565.00,5.7766E-02
570.00,5.8161E-02
575.00,5.8271E-02
580.00,5.8032E-02
585.00,5.7237E-02
590.00,5.5721E-02
595.00,5.3542E-02
600.00,5.0867E-02
605.00,4.7831E-02
610.00,4.4626E-02
615.00,4.1319E-02
620.00,3.7876E-02
625.00,3.4565E-02
630.00,3.1576E-02
635.00,2.8603E-02
640.00,2.5605E-02
645.00,2.2978E-02
650.00,2.0531E-02
655.00,1.8192E-02
660.00,1.6168E-02
665.00,1.4186E-02
670.00,1.2442E-02
675.00,1.0937E-02
680.00,9.6425E-03
685.00,8.4257E-03
690.00,7.3009E-03
695.00,6.4269E-03
700.00,5.6798E-03
705.00,4.9276E-03
710.00,4.3055E-03
715.00,3.7105E-03
720.00,3.3024E-03
725.00,2.8421E-03
730.00,2.5229E-03
