wavelength,intensity
380.00,0.0000E+00
385.00,0.0000E+00
390.00,0.0000E+00
395.00,0.0000E+00
400.00,0.0000E+00
405.00,0.0000E+00
410.00,0.0000E+00
415.00,0.0000E+00
420.00,0.0000E+00
425.00,0.0000E+00
430.00,0.0000E+00
435.00,0.0000E+00
440.00,6.5105E-04
445.00,1.2920E-03
450.00,1.1628E-03
455.00,8.1388E-04
460.00,8.3303E-04
465.00,7.2445E-04
470.00,4.5374E-04
475.00,2.9200E-04
480.00,1.8692E-04
485.00,1.7834E-04
490.00,3.4546E-05
495.00,1.8036E-05
500.00,2.2604E-05
505.00,9.4587E-05
510.00,4.3707E-04
515.00,7.1139E-04
520.00,1.3683E-03
525.00,2.3651E-03
530.00,4.2351E-03
535.00,6.9256E-03
540.00,1.1438E-02
545.00,1.7724E-02
550.00,2.6426E-02
555.00,3.7419E-02
560.00,5.0129E-02
565.00,6.3389E-02
570.00,7.6186E-02
575.00,8.6861E-02
580.00,9.6009E-02
585.00,1.0201E-01
590.00,1.0495E-01
595.00,1.0509E-01
600.00,1.0268E-01
605.00,9.8336E-02
610.00,9.2285E-02
615.00,8.5731E-02
620.00,7.7372E-02
625.00,7.0118E-02
630.00,6.2398E-02
635.00,5.5842E-02
640.00,4.8857E-02
645.00,4.2922E-02
650.00,3.7393E-02
655.00,3.2075E-02
660.00,2.7503E-02
665.00,2.3106E-02
670.00,1.9948E-02
675.00,1.6713E-02
680.00,1.3957E-02
685.00,1.2100E-02
690.00,9.7843E-03
695.00,8.5999E-03
700.00,6.8054E-03
705.00,5.6987E-03
710.00,5.1874E-03
715.00,3.8677E-03
720.00,3.1530E-03
725.00,2.4469E-03
730.00,1.6585E-03
