wavelength,intensity
380.00,2.6750E-04
385.00,2.5837E-04
390.00,3.4165E-04
395.00,3.5016E-04
400.00,4.3597E-04
405.00,6.9222E-04
410.00,8.4013E-04
415.00,1.5685E-03
420.00,3.2441E-03
425.00,6.6203E-03
430.00,1.3293E-02
435.00,2.5596E-02
440.00,4.7728E-02
445.00,7.9319E-02
450.00,9.2149E-02
455.00,7.1651E-02
460.00,4.9424E-02
465.00,3.6415E-02
470.00,2.5400E-02
475.00,1.8150E-02
480.00,1.4727E-02
485.00,1.3513E-02
490.00,1.4299E-02
495.00,1.6966E-02
500.00,2.1521E-02
505.00,2.6991E-02
510.00,3.2950E-02
515.00,3.8613E-02
520.00,4.3683E-02
525.00,4.7809E-02
530.00,5.0809E-02
535.00,5.2686E-02
540.00,5.3625E-02
545.00,5.4275E-02
550.00,5.4257E-02
555.00,5.4164E-02
560.00,5.4101E-02
565.00,5.3556E-02
570.00,5.3448E-02
575.00,5.3189E-02
580.00,5.2867E-02
585.00,5.2565E-02
590.00,5.2218E-02
595.00,5.1395E-02
600.00,4.9994E-02
605.00,4.8312E-02
610.00,4.6144E-02
615.00,4.3834E-02
620.00,4.1270E-02
625.00,3.8339E-02
630.00,3.5184E-02
635.00,3.2367E-02
640.00,2.9555E-02
645.00,2.6756E-02
650.00,2.4010E-02
655.00,2.1460E-02
660.00,1.9048E-02
665.00,1.6689E-02
670.00,1.4741E-02
675.00,1.3008E-02
680.00,1.1510E-02
685.00,9.9110E-03
690.00,8.6902E-03
695.00,7.5681E-03
700.00,6.7253E-03
705.00,5.7145E-03
710.00,5.0507E-03
715.00,4.4207E-03
720.00,3.8609E-03
725.00,3.4603E-03
730.00,2.9886E-03
