wavelength,intensity
380.00,3.9046E-05
385.00,5.1950E-04
390.00,5.9649E-04
395.00,3.9067E-04
400.00,8.7574E-04
405.00,9.2312E-04
410.00,2.4859E-03
415.00,4.3522E-03
420.00,8.9849E-03
425.00,1.6853E-02
430.00,2.9974E-02
435.00,4.8436E-02
440.00,7.5189E-02
445.00,9.3690E-02
450.00,7.9739E-02
455.00,5.1800E-02
460.00,3.2046E-02
465.00,2.2356E-02
470.00,1.5536E-02
475.00,1.1768E-02
480.00,1.0080E-02
485.00,9.3098E-03
490.00,9.6311E-03
495.00,1.2052E-02
500.00,1.6569E-02
505.00,2.1240E-02
510.00,2.7796E-02
515.00,3.3698E-02
520.00,3.9753E-02
525.00,4.5103E-02
530.00,4.9432E-02
535.00,5.2573E-02
540.00,5.4981E-02
545.00,5.7014E-02
550.00,5.8158E-02
555.00,5.9244E-02
560.00,5.9391E-02
565.00,5.9186E-02
570.00,5.8441E-02
575.00,5.7707E-02
580.00,5.6665E-02
585.00,5.4679E-02
590.00,5.2429E-02
595.00,4.9667E-02
600.00,4.8095E-02
605.00,4.4590E-02
610.00,4.2357E-02
615.00,3.9075E-02
620.00,3.6338E-02
625.00,3.3111E-02
630.00,3.0351E-02
635.00,2.8287E-02
640.00,2.6016E-02
645.00,2.2928E-02
650.00,2.0545E-02
655.00,1.8576E-02
660.00,1.6377E-02
665.00,1.4866E-02
670.00,1.2981E-02
675.00,1.1496E-02
680.00,1.0115E-02
685.00,8.7462E-03
690.00,7.5775E-03
695.00,7.4520E-03
700.00,6.3191E-03
705.00,5.7079E-03
710.00,5.1108E-03
715.00,3.7657E-03
720.00,3.9371E-03
725.00,3.0240E-03
730.00,2.8819E-03
