wavelength,intensity
380.00,0.0000E+00
385.00,0.0000E+00
390.00,0.0000E+00
395.00,0.0000E+00
400.00,0.0000E+00
405.00,0.0000E+00
410.00,0.0000E+00
415.00,0.0000E+00
420.00,7.1229E-04
425.00,2.5758E-03
430.00,5.1543E-03
435.00,8.0724E-03
440.00,1.2445E-02
445.00,1.8099E-02
450.00,2.1521E-02
455.00,1.6343E-02
460.00,1.0969E-02
465.00,8.6233E-03
470.00,7.1164E-03
475.00,5.8259E-03
480.00,6.3516E-03
485.00,7.4795E-03
490.00,9.1622E-03
495.00,1.1127E-02
500.00,1.3541E-02
505.00,1.5922E-02
510.00,1.8354E-02
515.00,2.1091E-02
520.00,2.3490E-02
525.00,2.6322E-02
530.00,2.9001E-02
535.00,3.2189E-02
540.00,3.5484E-02
545.00,3.9170E-02
550.00,4.2510E-02
555.00,4.6198E-02
560.00,5.0413E-02
565.00,5.4234E-02
570.00,5.8180E-02
575.00,6.1504E-02
580.00,6.5223E-02
585.00,6.8306E-02
590.00,7.1190E-02
595.00,7.3216E-02
600.00,7.4301E-02
605.00,7.4677E-02
610.00,7.4061E-02
615.00,7.2793E-02
620.00,6.9975E-02
625.00,6.7213E-02
630.00,6.4198E-02
635.00,6.0492E-02
640.00,5.6023E-02
645.00,5.1847E-02
650.00,4.7339E-02
655.00,4.2790E-02
660.00,3.8928E-02
665.00,3.4346E-02
670.00,3.0755E-02
675.00,2.7253E-02
680.00,2.3618E-02
685.00,2.1141E-02
690.00,1.7968E-02
695.00,1.5946E-02
700.00,1.3299E-02
705.00,1.1800E-02
710.00,1.0061E-02
715.00,8.6721E-03
720.00,6.9791E-03
725.00,5.8884E-03
730.00,5.0135E-03
