wavelength,intensity
380.00,1.9425E-04
385.00,1.9661E-04
390.00,2.6041E-04
395.00,1.4858E-04
400.00,3.1904E-04
405.00,3.8298E-04
410.00,5.7988E-04
415.00,1.1465E-03
420.00,2.1674E-03
425.00,4.3092E-03
430.00,8.0354E-03
435.00,1.3984E-02
440.00,2.4050E-02
445.00,3.6934E-02
450.00,3.8388E-02
455.00,2.6125E-02
460.00,1.7907E-02
465.00,1.3650E-02
470.00,9.9734E-03
475.00,7.9979E-03
480.00,7.5214E-03
485.00,7.9914E-03
490.00,9.5694E-03
495.00,1.2213E-02
500.00,1.5788E-02
505.00,1.9895E-02
510.00,2.4070E-02
515.00,2.8291E-02
520.00,3.1965E-02
525.00,3.5690E-02
530.00,3.8786E-02
535.00,4.1470E-02
540.00,4.3750E-02
545.00,4.6121E-02
550.00,4.8238E-02
555.00,5.0353E-02
560.00,5.2258E-02
565.00,5.3485E-02
570.00,5.4635E-02
575.00,5.5807E-02
580.00,5.7032E-02
585.00,5.7999E-02
590.00,5.9038E-02
595.00,6.0172E-02
600.00,6.1000E-02
605.00,6.1732E-02
610.00,6.2280E-02
615.00,6.2483E-02
620.00,6.2607E-02
625.00,6.1908E-02
630.00,6.1005E-02
635.00,5.9529E-02
640.00,5.7837E-02
645.00,5.5643E-02
650.00,5.2798E-02
655.00,4.9914E-02
660.00,4.6475E-02
665.00,4.3093E-02
670.00,3.9066E-02
675.00,3.5657E-02
680.00,3.1994E-02
685.00,2.8744E-02
690.00,2.5686E-02
695.00,2.2766E-02
700.00,2.0080E-02
705.00,1.7774E-02
710.00,1.5627E-02
715.00,1.3434E-02
720.00,1.1894E-02
725.00,1.0345E-02
730.00,8.9107E-03
