wavelength,intensity
380.00,5.4317E-05
385.00,4.9706E-05
390.00,2.0852E-05
395.00,8.2561E-05
400.00,1.0313E-04
405.00,1.4746E-04
410.00,1.7239E-04
415.00,3.0292E-04
420.00,6.0163E-04
425.00,1.1571E-03
430.00,2.1584E-03
435.00,3.8026E-03
440.00,6.0874E-03
445.00,9.8783E-03
450.00,1.5130E-02
455.00,1.9304E-02
460.00,1.8783E-02
465.00,1.5536E-02
470.00,1.2859E-02
475.00,1.1425E-02
480.00,1.0071E-02
485.00,9.0113E-03
490.00,8.8360E-03
495.00,9.4907E-03
500.00,1.0923E-02
505.00,1.3299E-02
510.00,1.6190E-02
515.00,1.9588E-02
520.00,2.3044E-02
525.00,2.6533E-02
530.00,2.9895E-02
535.00,3.3145E-02
540.00,3.6246E-02
545.00,3.9360E-02
550.00,4.2399E-02
555.00,4.6050E-02
560.00,4.9739E-02
565.00,5.3358E-02
570.00,5.7142E-02
575.00,6.0993E-02
580.00,6.4678E-02
585.00,6.7792E-02
590.00,7.0694E-02
595.00,7.2828E-02
600.00,7.4091E-02
605.00,7.4756E-02
610.00,7.4932E-02
615.00,7.3957E-02
620.00,7.1998E-02
625.00,6.9302E-02
630.00,6.6297E-02
635.00,6.2714E-02
640.00,5.8688E-02
645.00,5.4193E-02
650.00,4.9524E-02
655.00,4.4907E-02
660.00,4.0764E-02
665.00,3.6101E-02
670.00,3.2084E-02
675.00,2.8311E-02
680.00,2.4955E-02
685.00,2.1788E-02
690.00,1.8992E-02
695.00,1.6517E-02
700.00,1.4429E-02
705.00,1.2351E-02
710.00,1.0654E-02
715.00,9.1870E-03
720.00,8.0406E-03
725.00,6.8380E-03
730.00,6.0580E-03
