wavelength,intensity
380.00,7.5391E-05
385.00,4.9400E-07
390.00,1.2986E-04
395.00,2.5970E-05
400.00,1.1012E-04
405.00,3.9922E-04
410.00,7.2031E-04
415.00,1.4336E-03
420.00,3.0920E-03
425.00,5.9828E-03
430.00,9.8276E-03
435.00,1.3985E-02
440.00,1.9240E-02
445.00,2.3573E-02
450.00,2.0175E-02
455.00,1.2570E-02
460.00,8.7934E-03
465.00,6.3678E-03
470.00,4.6046E-03
475.00,3.7737E-03
480.00,3.8434E-03
485.00,4.0305E-03
490.00,4.5682E-03
495.00,5.7484E-03
500.00,7.3275E-03
505.00,8.8796E-03
510.00,1.0779E-02
515.00,1.2442E-02
520.00,1.4127E-02
525.00,1.6015E-02
530.00,1.8274E-02
535.00,2.1390E-02
540.00,2.5175E-02
545.00,2.9940E-02
550.00,3.6343E-02
555.00,4.4068E-02
560.00,5.2741E-02
565.00,6.1282E-02
570.00,6.9705E-02
575.00,7.6837E-02
580.00,8.2558E-02
585.00,8.5988E-02
590.00,8.7668E-02
595.00,8.7071E-02
600.00,8.5117E-02
605.00,8.1435E-02
610.00,7.6761E-02
615.00,7.1817E-02
620.00,6.5514E-02
625.00,5.9815E-02
630.00,5.3566E-02
635.00,4.8204E-02
640.00,4.2749E-02
645.00,3.7762E-02
650.00,3.3011E-02
655.00,2.8763E-02
660.00,2.4957E-02
665.00,2.1451E-02
670.00,1.8621E-02
675.00,1.5879E-02
680.00,1.3694E-02
685.00,1.1922E-02
690.00,9.9891E-03
695.00,8.7922E-03
700.00,7.1108E-03
705.00,6.2403E-03
710.00,5.3343E-03
715.00,4.6572E-03
720.00,4.1223E-03
725.00,3.4327E-03
730.00,3.0340E-03
