wavelength,intensity
380.00,0.0000E+00
385.00,1.6656E-04
390.00,4.1200E-05
395.00,6.0545E-05
400.00,4.2867E-05
405.00,3.7421E-04
410.00,7.8967E-04
415.00,1.4177E-03
420.00,3.1414E-03
425.00,6.0476E-03
430.00,9.6146E-03
435.00,1.4838E-02
440.00,2.1678E-02
445.00,2.4898E-02
450.00,2.0189E-02
455.00,1.3536E-02
460.00,1.0205E-02
465.00,8.3122E-03
470.00,6.6134E-03
475.00,6.9113E-03
480.00,7.8974E-03
485.00,9.6235E-03
490.00,1.1925E-02
495.00,1.4485E-02
500.00,1.7251E-02
505.00,1.9877E-02
510.00,2.2261E-02
515.00,2.4501E-02
520.00,2.6607E-02
525.00,2.9177E-02
530.00,3.1725E-02
535.00,3.4598E-02
540.00,3.7644E-02
545.00,4.0658E-02
550.00,4.4003E-02
555.00,4.7453E-02
560.00,5.0848E-02
565.00,5.4165E-02
570.00,5.7095E-02
575.00,5.9722E-02
580.00,6.2605E-02
585.00,6.5443E-02
590.00,6.7280E-02
595.00,6.9036E-02
600.00,7.0080E-02
605.00,7.0764E-02
610.00,7.0207E-02
615.00,6.9036E-02
620.00,6.7292E-02
625.00,6.4870E-02
630.00,6.1874E-02
635.00,5.8077E-02
640.00,5.4339E-02
645.00,5.0073E-02
650.00,4.6321E-02
655.00,4.1680E-02
660.00,3.7649E-02
665.00,3.3457E-02
670.00,3.0042E-02
675.00,2.6464E-02
680.00,2.3427E-02
685.00,2.0496E-02
690.00,1.7861E-02
695.00,1.5541E-02
700.00,1.3400E-02
705.00,1.1534E-02
710.00,1.0099E-02
715.00,8.3152E-03
720.00,7.4451E-03
725.00,6.4148E-03
730.00,5.3031E-03
