wavelength,intensity
380.00,3.0196E-04
385.00,3.6422E-04
390.00,2.4608E-04
395.00,1.6648E-04
400.00,3.9001E-04
405.00,5.0946E-04
410.00,8.1421E-04
415.00,1.3372E-03
420.00,2.3289E-03
425.00,4.4182E-03
430.00,7.9148E-03
435.00,1.3132E-02
440.00,2.1728E-02
445.00,3.4428E-02
450.00,4.0373E-02
455.00,3.2203E-02
460.00,2.3169E-02
465.00,1.8719E-02
470.00,1.4830E-02
475.00,1.2195E-02
480.00,1.1418E-02
485.00,1.1889E-02
490.00,1.3232E-02
495.00,1.5862E-02
500.00,1.9134E-02
505.00,2.2305E-02
510.00,2.5535E-02
515.00,2.8448E-02
520.00,3.1186E-02
525.00,3.3553E-02
530.00,3.5732E-02
535.00,3.8002E-02
540.00,4.0466E-02
545.00,4.2772E-02
550.00,4.5310E-02
555.00,4.8101E-02
560.00,5.0885E-02
565.00,5.3719E-02
570.00,5.6229E-02
575.00,5.8622E-02
580.00,6.0605E-02
585.00,6.2482E-02
590.00,6.3725E-02
595.00,6.4804E-02
600.00,6.5103E-02
605.00,6.5098E-02
610.00,6.4591E-02
615.00,6.3204E-02
620.00,6.1278E-02
625.00,5.9125E-02
630.00,5.6467E-02
635.00,5.3676E-02
640.00,5.0343E-02
645.00,4.6692E-02
650.00,4.3185E-02
655.00,3.9443E-02
660.00,3.5736E-02
665.00,3.2094E-02
670.00,2.8948E-02
675.00,2.5740E-02
680.00,2.3117E-02
685.00,2.0279E-02
690.00,1.8038E-02
695.00,1.5657E-02
700.00,1.3886E-02
705.00,1.2180E-02
710.00,1.0578E-02
715.00,9.2771E-03
720.00,8.0099E-03
725.00,6.7589E-03
730.00,6.0644E-03
