wavelength,intensity
380.00,2.7664E-04
385.00,2.4071E-04
390.00,4.8581E-04
395.00,2.4621E-04
400.00,8.7258E-04
405.00,0.0000E+00
410.00,4.1197E-04
415.00,1.2722E-03
420.00,1.3097E-03
425.00,2.9348E-03
430.00,5.0592E-03
435.00,8.8162E-03
440.00,1.3837E-02
445.00,2.0230E-02
450.00,2.8900E-02
455.00,3.3041E-02
460.00,2.8716E-02
465.00,2.3723E-02
470.00,1.9466E-02
475.00,1.6930E-02
480.00,1.4333E-02
485.00,1.3008E-02
490.00,1.2420E-02
495.00,1.2927E-02
500.00,1.4794E-02
505.00,1.7200E-02
510.00,2.0587E-02
515.00,2.4294E-02
520.00,2.7986E-02
525.00,3.1004E-02
530.00,3.4947E-02
535.00,3.7746E-02
540.00,4.0691E-02
545.00,4.3357E-02
550.00,4.6185E-02
555.00,4.9261E-02
560.00,5.2310E-02
565.00,5.4215E-02
570.00,5.7722E-02
575.00,5.9951E-02
580.00,6.2174E-02
585.00,6.4817E-02
590.00,6.6560E-02
595.00,6.7424E-02
600.00,6.7535E-02
605.00,6.6125E-02
610.00,6.6014E-02
615.00,6.3558E-02
620.00,6.0810E-02
625.00,5.8025E-02
630.00,5.4943E-02
635.00,5.1709E-02
640.00,4.8137E-02
645.00,4.3609E-02
650.00,3.9443E-02
655.00,3.5702E-02
660.00,3.2355E-02
665.00,2.8921E-02
670.00,2.5773E-02
675.00,2.2265E-02
680.00,2.0274E-02
685.00,1.7585E-02
690.00,1.5066E-02
695.00,1.4105E-02
700.00,1.1992E-02
705.00,1.0421E-02
710.00,9.4373E-03
715.00,7.1896E-03
720.00,6.4190E-03
725.00,5.4387E-03
730.00,5.3109E-03
