wavelength,intensity
380.00,0.0000E+00
385.00,1.5256E-04
390.00,5.2385E-05
395.00,1.6459E-04
400.00,2.9438E-04
405.00,3.7793E-04
410.00,4.6433E-04
415.00,1.1542E-03
420.00,2.0676E-03
425.00,3.5364E-03
430.00,6.1361E-03
435.00,1.0231E-02
440.00,1.5508E-02
445.00,2.3627E-02
450.00,3.0490E-02
455.00,2.8431E-02
460.00,2.0170E-02
465.00,1.5971E-02
470.00,1.2992E-02
475.00,1.0727E-02
480.00,9.4246E-03
485.00,9.9271E-03
490.00,1.1166E-02
495.00,1.3353E-02
500.00,1.6153E-02
505.00,1.9305E-02
510.00,2.2230E-02
515.00,2.5184E-02
520.00,2.7440E-02
525.00,2.9762E-02
530.00,3.1921E-02
535.00,3.4274E-02
540.00,3.6769E-02
545.00,3.9323E-02
550.00,4.2495E-02
555.00,4.5735E-02
560.00,4.9451E-02
565.00,5.2875E-02
570.00,5.6390E-02
575.00,5.9543E-02
580.00,6.2752E-02
585.00,6.5686E-02
590.00,6.7861E-02
595.00,6.9828E-02
600.00,7.0641E-02
605.00,7.1085E-02
610.00,7.0856E-02
615.00,6.9626E-02
620.00,6.8071E-02
625.00,6.5529E-02
630.00,6.2922E-02
635.00,6.0371E-02
640.00,5.6313E-02
645.00,5.2412E-02
650.00,4.8930E-02
655.00,4.4586E-02
660.00,4.0217E-02
665.00,3.6397E-02
670.00,3.2871E-02
675.00,2.9121E-02
680.00,2.5890E-02
685.00,2.3285E-02
690.00,2.0218E-02
695.00,1.7981E-02
700.00,1.5697E-02
705.00,1.3535E-02
710.00,1.1848E-02
715.00,1.0586E-02
720.00,8.6952E-03
725.00,7.7656E-03
730.00,6.8480E-03
