wavelength,intensity
380.00,0.0000E+00
385.00,0.0000E+00
390.00,0.0000E+00
395.00,0.0000E+00
400.00,0.0000E+00
405.00,0.0000E+00
410.00,4.5605E-05
415.00,1.1346E-04
420.00,6.6747E-04
425.00,1.6520E-03
430.00,3.4922E-03
435.00,6.0719E-03
440.00,1.0185E-02
445.00,1.6315E-02
450.00,2.3545E-02
455.00,2.7450E-02
460.00,2.5623E-02
465.00,2.0977E-02
470.00,1.7409E-02
475.00,1.5102E-02
480.00,1.3190E-02
485.00,1.1728E-02
490.00,1.1368E-02
495.00,1.1950E-02
500.00,1.3841E-02
505.00,1.6752E-02
510.00,2.0283E-02
515.00,2.4122E-02
520.00,2.8132E-02
525.00,3.1734E-02
530.00,3.5099E-02
535.00,3.8165E-02
540.00,4.0905E-02
545.00,4.3351E-02
550.00,4.6027E-02
555.00,4.8627E-02
560.00,5.1955E-02
565.00,5.4312E-02
570.00,5.7149E-02
575.00,5.9618E-02
580.00,6.2392E-02
585.00,6.4407E-02
590.00,6.6081E-02
595.00,6.7617E-02
600.00,6.7815E-02
605.00,6.7593E-02
610.00,6.6678E-02
615.00,6.4712E-02
620.00,6.2265E-02
625.00,5.9682E-02
630.00,5.6298E-02
635.00,5.2681E-02
640.00,4.8942E-02
645.00,4.5159E-02
650.00,4.1192E-02
655.00,3.7182E-02
660.00,3.3319E-02
665.00,2.9596E-02
670.00,2.6343E-02
675.00,2.2988E-02
680.00,2.0403E-02
685.00,1.7722E-02
690.00,1.5140E-02
695.00,1.3229E-02
700.00,1.1476E-02
705.00,9.9614E-03
710.00,8.4275E-03
715.00,7.2650E-03
720.00,6.2232E-03
725.00,5.1376E-03
730.00,4.4421E-03
