wavelength,intensity
380.00,0.0000E+00
385.00,0.0000E+00
390.00,0.0000E+00
395.00,0.0000E+00
400.00,0.0000E+00
405.00,0.0000E+00
410.00,0.0000E+00
415.00,0.0000E+00
420.00,0.0000E+00
425.00,0.0000E+00
430.00,5.9043E-03
435.00,1.8131E-02
440.00,3.1325E-02
445.00,3.2409E-02
450.00,1.7306E-02
455.00,5.8447E-03
460.00,0.0000E+00
465.00,0.0000E+00
470.00,0.0000E+00
475.00,0.0000E+00
480.00,0.0000E+00
485.00,0.0000E+00
490.00,0.0000E+00
495.00,0.0000E+00
500.00,3.3642E-03
505.00,1.1186E-02
510.00,1.9103E-02
515.00,2.5105E-02
520.00,3.4089E-02
525.00,4.0265E-02
530.00,4.5630E-02
535.00,4.9548E-02
540.00,5.2449E-02
545.00,5.6335E-02
550.00,5.9117E-02
555.00,6.3690E-02
560.00,6.4934E-02
565.00,6.6144E-02
570.00,6.4205E-02
575.00,6.7272E-02
580.00,6.7468E-02
585.00,6.8456E-02
590.00,6.0819E-02
595.00,5.6594E-02
600.00,5.3489E-02
605.00,4.8098E-02
610.00,4.4209E-02
615.00,4.4546E-02
620.00,3.6112E-02
625.00,3.3405E-02
630.00,2.2083E-02
635.00,2.1661E-02
640.00,1.8431E-02
645.00,1.4797E-02
650.00,7.3359E-03
655.00,4.3939E-03
660.00,1.2608E-03
665.00,0.0000E+00
670.00,0.0000E+00
675.00,0.0000E+00
680.00,0.0000E+00
685.00,0.0000E+00
690.00,0.0000E+00
695.00,0.0000E+00
700.00,0.0000E+00
705.00,0.0000E+00
710.00,0.0000E+00
715.00,0.0000E+00
720.00,0.0000E+00
725.00,0.0000E+00
730.00,0.0000E+00
