wavelength,intensity
380.00,3.6650E-04
385.00,3.3180E-05
390.00,1.3172E-04
395.00,0.0000E+00
400.00,5.1320E-04
405.00,4.8142E-04
410.00,5.9285E-04
415.00,6.5004E-04
420.00,2.1468E-03
425.00,4.0016E-03
430.00,7.0366E-03
435.00,1.1087E-02
440.00,1.7630E-02
445.00,2.6626E-02
450.00,3.0007E-02
455.00,2.3380E-02
460.00,1.7854E-02
465.00,1.5301E-02
470.00,1.2329E-02
475.00,1.0470E-02
480.00,1.0358E-02
485.00,1.1119E-02
490.00,1.2212E-02
495.00,1.4466E-02
500.00,1.7512E-02
505.00,2.0619E-02
510.00,2.3696E-02
515.00,2.6572E-02
520.00,2.9468E-02
525.00,3.2304E-02
530.00,3.4716E-02
535.00,3.6610E-02
540.00,3.9199E-02
545.00,4.2209E-02
550.00,4.4173E-02
555.00,4.7011E-02
560.00,5.0283E-02
565.00,5.2867E-02
570.00,5.5629E-02
575.00,5.8143E-02
580.00,6.0928E-02
585.00,6.3372E-02
590.00,6.5518E-02
595.00,6.7126E-02
600.00,6.7555E-02
605.00,6.8418E-02
610.00,6.8423E-02
615.00,6.7496E-02
620.00,6.5272E-02
625.00,6.3190E-02
630.00,5.9869E-02
635.00,5.7146E-02
640.00,5.3467E-02
645.00,4.9694E-02
650.00,4.5623E-02
655.00,4.2008E-02
660.00,3.7578E-02
665.00,3.3802E-02
670.00,3.0481E-02
675.00,2.7314E-02
680.00,2.3797E-02
685.00,2.0882E-02
690.00,1.8334E-02
695.00,1.6534E-02
700.00,1.4286E-02
705.00,1.2668E-02
710.00,1.0770E-02
715.00,9.6235E-03
720.00,8.3278E-03
725.00,7.5804E-03
730.00,6.2361E-03
