wavelength,intensity
380.00,0.0000E+00
385.00,2.0863E-04
390.00,6.3822E-05
395.00,0.0000E+00
400.00,1.5987E-04
405.00,2.6744E-04
410.00,5.5151E-04
415.00,6.6111E-04
420.00,1.8965E-03
425.00,3.2520E-03
430.00,5.2349E-03
435.00,7.8344E-03
440.00,1.1728E-02
445.00,1.7569E-02
450.00,2.1634E-02
455.00,1.8885E-02
460.00,1.4378E-02
465.00,1.1948E-02
470.00,1.0011E-02
475.00,8.7349E-03
480.00,8.3358E-03
485.00,9.0676E-03
490.00,1.0512E-02
495.00,1.2656E-02
500.00,1.5570E-02
505.00,1.8774E-02
510.00,2.1702E-02
515.00,2.4689E-02
520.00,2.7449E-02
525.00,3.0246E-02
530.00,3.2600E-02
535.00,3.4882E-02
540.00,3.7524E-02
545.00,4.0008E-02
550.00,4.2667E-02
555.00,4.5816E-02
560.00,4.9252E-02
565.00,5.2421E-02
570.00,5.5530E-02
575.00,5.9038E-02
580.00,6.2826E-02
585.00,6.5939E-02
590.00,6.8836E-02
595.00,7.1617E-02
600.00,7.3029E-02
605.00,7.3574E-02
610.00,7.2793E-02
615.00,7.1587E-02
620.00,6.8700E-02
625.00,6.5755E-02
630.00,6.2101E-02
635.00,5.7728E-02
640.00,5.3000E-02
645.00,4.8019E-02
650.00,4.2789E-02
655.00,3.8478E-02
660.00,3.4427E-02
665.00,3.0070E-02
670.00,2.6087E-02
675.00,2.3096E-02
680.00,1.9838E-02
685.00,1.7364E-02
690.00,1.4940E-02
695.00,1.2885E-02
700.00,1.0785E-02
705.00,9.1538E-03
710.00,7.6945E-03
715.00,6.6099E-03
720.00,5.6331E-03
725.00,4.6467E-03
730.00,4.1963E-03
