wavelength,intensity
380.00,1.0098E-04
385.00,9.2392E-06
390.00,3.5472E-04
395.00,4.6267E-04
400.00,4.2371E-04
405.00,4.9125E-04
410.00,8.6514E-04
415.00,1.7606E-03
420.00,4.2656E-03
425.00,7.7782E-03
430.00,1.4889E-02
435.00,2.5169E-02
440.00,4.1471E-02
445.00,6.7425E-02
450.00,8.6301E-02
455.00,7.3708E-02
460.00,4.5453E-02
465.00,2.9799E-02
470.00,2.0786E-02
475.00,1.3746E-02
480.00,9.9918E-03
485.00,8.6603E-03
490.00,8.4970E-03
495.00,1.0221E-02
500.00,1.3935E-02
505.00,1.9781E-02
510.00,2.6884E-02
515.00,3.4395E-02
520.00,4.1104E-02
525.00,4.6805E-02
530.00,5.1302E-02
535.00,5.4469E-02
540.00,5.7003E-02
545.00,5.8187E-02
550.00,5.8878E-02
555.00,5.9714E-02
560.00,5.9803E-02
565.00,5.9771E-02
570.00,5.8426E-02
575.00,5.7326E-02
580.00,5.6170E-02
585.00,5.4160E-02
590.00,5.1886E-02
595.00,4.9530E-02
600.00,4.6712E-02
605.00,4.3264E-02
610.00,4.0112E-02
615.00,3.7585E-02
620.00,3.4894E-02
625.00,3.1850E-02
630.00,2.9270E-02
635.00,2.6261E-02
640.00,2.3739E-02
645.00,2.1270E-02
650.00,1.8942E-02
655.00,1.6703E-02
660.00,1.4901E-02
665.00,1.2487E-02
670.00,9.9438E-03
675.00,8.9080E-03
680.00,8.1177E-03
685.00,7.1926E-03
690.00,6.5161E-03
695.00,5.6746E-03
700.00,5.4626E-03
705.00,4.9505E-03
710.00,4.2425E-03
715.00,3.7810E-03
720.00,2.9488E-03
725.00,2.4685E-03
730.00,2.9676E-03
