wavelength,intensity
380.00,1.4014E-04
385.00,2.3555E-04
390.00,2.2561E-04
395.00,2.3985E-04
400.00,4.1199E-04
405.00,4.6531E-04
410.00,6.7511E-04
415.00,1.4178E-03
420.00,2.9079E-03
425.00,5.7188E-03
430.00,1.0460E-02
435.00,1.7207E-02
440.00,2.6248E-02
445.00,3.8911E-02
450.00,4.9935E-02
455.00,4.7377E-02
460.00,3.4827E-02
465.00,2.5309E-02
470.00,1.9973E-02
475.00,1.5869E-02
480.00,1.3192E-02
485.00,1.1958E-02
490.00,1.1885E-02
495.00,1.3183E-02
500.00,1.5654E-02
505.00,1.9464E-02
510.00,2.4077E-02
515.00,2.8807E-02
520.00,3.3683E-02
525.00,3.7989E-02
530.00,4.1857E-02
535.00,4.5157E-02
540.00,4.7820E-02
545.00,5.0225E-02
550.00,5.2407E-02
555.00,5.4438E-02
560.00,5.6078E-02
565.00,5.7353E-02
570.00,5.8340E-02
575.00,5.9115E-02
580.00,5.9798E-02
585.00,5.9903E-02
590.00,5.9519E-02
595.00,5.8890E-02
600.00,5.7621E-02
605.00,5.5745E-02
610.00,5.3581E-02
615.00,5.1362E-02
620.00,4.8286E-02
625.00,4.5203E-02
630.00,4.2221E-02
635.00,3.9095E-02
640.00,3.5779E-02
645.00,3.2606E-02
650.00,2.9313E-02
655.00,2.6515E-02
660.00,2.3815E-02
665.00,2.1001E-02
670.00,1.8713E-02
675.00,1.6194E-02
680.00,1.4642E-02
685.00,1.2614E-02
690.00,1.1056E-02
695.00,9.8008E-03
700.00,8.4851E-03
705.00,7.4718E-03
710.00,6.4711E-03
715.00,5.5087E-03
720.00,4.9138E-03
725.00,4.1841E-03
730.00,3.7654E-03
