wavelength,intensity
380.00,1.6917E-05
385.00,2.1110E-04
390.00,1.0704E-04
395.00,1.9415E-04
400.00,1.6615E-04
405.00,2.9676E-04
410.00,3.6958E-04
415.00,6.0182E-04
420.00,1.1569E-03
425.00,2.3148E-03
430.00,4.7426E-03
435.00,8.7344E-03
440.00,1.5643E-02
445.00,2.5678E-02
450.00,3.0762E-02
455.00,2.4332E-02
460.00,1.6444E-02
465.00,1.2956E-02
470.00,1.0174E-02
475.00,8.5383E-03
480.00,8.4882E-03
485.00,9.8000E-03
490.00,1.2215E-02
495.00,1.5506E-02
500.00,1.9382E-02
505.00,2.3350E-02
510.00,2.6834E-02
515.00,3.0107E-02
520.00,3.2253E-02
525.00,3.3988E-02
530.00,3.5104E-02
535.00,3.6041E-02
540.00,3.6752E-02
545.00,3.7471E-02
550.00,3.8584E-02
555.00,4.0273E-02
560.00,4.2604E-02
565.00,4.5603E-02
570.00,4.9591E-02
575.00,5.4224E-02
580.00,5.9472E-02
585.00,6.4865E-02
590.00,6.9581E-02
595.00,7.3616E-02
600.00,7.6522E-02
605.00,7.7666E-02
610.00,7.8080E-02
615.00,7.7074E-02
620.00,7.4243E-02
625.00,7.0419E-02
630.00,6.6327E-02
635.00,6.1541E-02
640.00,5.6318E-02
645.00,5.0941E-02
650.00,4.5995E-02
655.00,4.0565E-02
660.00,3.5805E-02
665.00,3.1211E-02
670.00,2.7229E-02
675.00,2.3447E-02
680.00,2.0263E-02
685.00,1.7533E-02
690.00,1.4968E-02
695.00,1.2756E-02
700.00,1.0885E-02
705.00,9.2163E-03
710.00,7.9976E-03
715.00,6.6771E-03
720.00,5.7634E-03
725.00,4.9267E-03
730.00,4.1882E-03
