wavelength,intensity
380.00,1.3386E-05
385.00,6.5881E-05
390.00,4.1165E-05
395.00,4.6588E-05
400.00,1.5833E-04
405.00,3.4330E-04
410.00,6.4747E-04
415.00,1.3357E-03
420.00,2.7945E-03
425.00,5.4347E-03
430.00,9.7744E-03
435.00,1.5946E-02
440.00,2.5153E-02
445.00,3.7641E-02
450.00,5.0103E-02
455.00,5.1778E-02
460.00,4.1931E-02
465.00,3.0734E-02
470.00,2.2949E-02
475.00,1.7440E-02
480.00,1.3490E-02
485.00,1.1266E-02
490.00,1.0530E-02
495.00,1.1240E-02
500.00,1.3533E-02
505.00,1.7112E-02
510.00,2.1552E-02
515.00,2.6384E-02
520.00,3.0957E-02
525.00,3.5242E-02
530.00,3.8900E-02
535.00,4.2128E-02
540.00,4.4801E-02
545.00,4.7241E-02
550.00,4.9383E-02
555.00,5.1543E-02
560.00,5.3745E-02
565.00,5.5458E-02
570.00,5.6950E-02
575.00,5.8197E-02
580.00,5.9458E-02
585.00,6.0291E-02
590.00,6.0869E-02
595.00,6.1157E-02
600.00,6.0841E-02
605.00,6.0215E-02
610.00,5.9594E-02
615.00,5.8121E-02
620.00,5.6324E-02
625.00,5.4253E-02
630.00,5.2055E-02
635.00,4.9641E-02
640.00,4.6567E-02
645.00,4.3522E-02
650.00,4.0448E-02
655.00,3.7136E-02
660.00,3.4002E-02
665.00,3.0647E-02
670.00,2.7632E-02
675.00,2.4852E-02
680.00,2.2001E-02
685.00,1.9708E-02
690.00,1.7422E-02
695.00,1.5350E-02
700.00,1.3661E-02
705.00,1.1861E-02
710.00,1.0263E-02
715.00,8.9739E-03
720.00,7.8031E-03
725.00,6.7754E-03
730.00,5.9754E-03
