wavelength,intensity
380.00,9.0697E-05
385.00,1.4803E-04
390.00,2.0435E-04
395.00,2.6277E-04
400.00,2.9816E-04
405.00,3.2958E-04
410.00,4.6964E-04
415.00,7.6212E-04
420.00,1.5676E-03
425.00,2.7385E-03
430.00,4.8937E-03
435.00,8.4093E-03
440.00,1.2816E-02
445.00,1.9024E-02
450.00,2.7654E-02
455.00,3.2682E-02
460.00,2.8605E-02
465.00,2.1504E-02
470.00,1.7380E-02
475.00,1.4671E-02
480.00,1.2414E-02
485.00,1.0926E-02
490.00,1.0723E-02
495.00,1.1446E-02
500.00,1.3021E-02
505.00,1.5891E-02
510.00,1.9250E-02
515.00,2.3074E-02
520.00,2.6864E-02
525.00,3.0517E-02
530.00,3.4021E-02
535.00,3.7315E-02
540.00,4.0190E-02
545.00,4.3174E-02
550.00,4.6000E-02
555.00,4.9147E-02
560.00,5.2241E-02
565.00,5.5009E-02
570.00,5.8038E-02
575.00,6.0702E-02
580.00,6.3397E-02
585.00,6.5469E-02
590.00,6.7147E-02
595.00,6.7997E-02
600.00,6.8313E-02
605.00,6.7925E-02
610.00,6.6706E-02
615.00,6.4777E-02
620.00,6.2087E-02
625.00,5.9201E-02
630.00,5.5731E-02
635.00,5.2195E-02
640.00,4.8356E-02
645.00,4.4383E-02
650.00,4.0226E-02
655.00,3.6320E-02
660.00,3.2781E-02
665.00,2.9074E-02
670.00,2.5645E-02
675.00,2.2598E-02
680.00,1.9809E-02
685.00,1.7369E-02
690.00,1.5061E-02
695.00,1.3301E-02
700.00,1.1639E-02
705.00,1.0086E-02
710.00,8.7568E-03
715.00,7.5778E-03
720.00,6.4944E-03
725.00,5.6409E-03
730.00,4.8872E-03
