wavelength,intensity
380.00,2.5502E-03
385.00,4.1218E-03
390.00,3.0208E-02
395.00,6.6047E-03
400.00,1.5448E-02
405.00,6.4429E-02
410.00,1.3398E-02
415.00,2.7915E-02
420.00,1.2139E-02
425.00,3.4549E-02
430.00,2.0213E-02
435.00,1.0632E-01
440.00,2.4228E-02
445.00,9.1068E-03
450.00,8.3549E-03
455.00,1.3467E-02
460.00,1.3094E-02
465.00,8.1539E-03
470.00,1.5788E-02
475.00,6.7399E-02
480.00,9.1068E-03
485.00,1.6013E-02
490.00,1.0918E-02
495.00,1.5133E-02
500.00,1.2744E-02
505.00,1.4869E-02
510.00,8.2246E-02
515.00,5.7198E-03
520.00,1.0372E-02
525.00,1.0775E-02
530.00,8.4105E-03
535.00,6.6342E-02
540.00,1.7143E-02
545.00,1.5242E-01
550.00,2.7488E-02
555.00,1.3779E-02
560.00,1.0428E-02
565.00,1.9515E-02
570.00,1.1465E-01
575.00,2.3805E-02
580.00,5.5113E-02
585.00,7.4296E-03
590.00,3.6773E-01
595.00,5.5109E-02
600.00,2.7391E-02
605.00,1.7213E-02
610.00,1.3456E-02
615.00,1.5997E-02
620.00,3.3874E-02
625.00,5.2851E-02
630.00,5.9098E-02
635.00,9.2748E-03
640.00,1.1087E-02
645.00,6.7303E-03
650.00,5.3875E-03
655.00,5.2734E-03
660.00,5.9848E-03
665.00,4.0503E-03
670.00,3.6064E-02
675.00,7.1557E-03
680.00,5.6152E-03
685.00,3.8146E-03
690.00,4.4596E-03
695.00,2.9146E-03
700.00,2.8347E-03
705.00,1.9687E-03
710.00,2.6658E-03
715.00,3.4567E-03
720.00,2.0821E-03
725.00,1.8658E-03
730.00,3.2032E-03
