wavelength,intensity
380.00,2.1350E-04
385.00,1.4837E-04
390.00,1.2247E-04
395.00,4.9203E-04
400.00,4.4785E-03
405.00,1.6096E-02
410.00,1.0968E-02
415.00,2.3871E-02
420.00,1.6948E-02
425.00,3.5528E-02
430.00,2.6817E-02
435.00,6.3927E-02
440.00,3.0125E-02
445.00,1.7867E-02
450.00,2.0092E-02
455.00,2.4373E-02
460.00,1.9395E-02
465.00,1.3840E-02
470.00,2.7489E-02
475.00,6.3094E-02
480.00,1.6826E-02
485.00,2.6736E-02
490.00,1.7779E-02
495.00,2.1886E-02
500.00,2.0737E-02
505.00,2.6058E-02
510.00,8.3360E-02
515.00,1.7559E-02
520.00,2.1775E-02
525.00,1.7422E-02
530.00,1.5991E-02
535.00,7.3648E-02
540.00,2.5941E-02
545.00,1.0398E-01
550.00,3.1129E-02
555.00,2.3892E-02
560.00,1.9508E-02
565.00,2.6237E-02
570.00,1.0983E-01
575.00,2.6426E-02
580.00,4.3008E-02
585.00,1.3008E-02
590.00,2.7707E-01
595.00,7.1192E-02
600.00,4.0916E-02
605.00,2.5300E-02
610.00,2.0332E-02
615.00,2.6242E-02
620.00,4.1168E-02
625.00,5.2318E-02
630.00,5.1009E-02
635.00,1.4980E-02
640.00,1.4527E-02
645.00,1.7019E-02
650.00,9.1942E-03
655.00,9.3292E-03
660.00,1.4827E-02
665.00,7.8640E-03
670.00,2.4152E-02
675.00,1.1158E-02
680.00,8.0498E-03
685.00,6.8602E-03
690.00,8.2461E-03
695.00,9.2730E-03
700.00,1.0843E-02
705.00,4.4263E-03
710.00,4.7147E-03
715.00,5.6140E-03
720.00,5.6267E-03
725.00,3.7790E-03
730.00,3.0514E-03
