wavelength,intensity
380.00,6.9848E-03
385.00,9.6253E-03
390.00,2.4672E-02
395.00,1.6063E-02
400.00,2.1249E-02
405.00,7.9999E-02
410.00,1.9037E-02
415.00,2.2800E-02
420.00,1.5444E-02
425.00,3.7217E-02
430.00,2.6938E-02
435.00,1.6143E-01
440.00,3.8377E-02
445.00,2.5409E-02
450.00,1.2769E-02
455.00,1.3640E-02
460.00,1.0680E-02
465.00,9.2404E-03
470.00,1.5658E-02
475.00,3.7625E-02
480.00,9.6189E-03
485.00,1.2817E-02
490.00,1.0828E-02
495.00,1.1914E-02
500.00,1.1537E-02
505.00,1.5099E-02
510.00,4.2682E-02
515.00,1.0171E-02
520.00,1.2399E-02
525.00,1.1813E-02
530.00,1.0539E-02
535.00,4.2004E-02
540.00,1.7061E-02
545.00,2.5248E-01
550.00,2.7640E-02
555.00,1.5833E-02
560.00,1.4465E-02
565.00,2.1013E-02
570.00,7.6702E-02
575.00,5.9819E-02
580.00,1.2838E-01
585.00,1.2384E-02
590.00,2.4602E-01
595.00,2.9652E-02
600.00,1.8222E-02
605.00,1.1513E-02
610.00,1.2893E-02
615.00,1.3270E-02
620.00,2.7297E-02
625.00,3.3043E-02
630.00,4.1181E-02
635.00,8.5458E-03
640.00,1.0553E-02
645.00,1.0181E-02
650.00,5.9275E-03
655.00,7.9738E-03
660.00,9.9495E-03
665.00,6.4361E-03
670.00,1.7447E-02
675.00,6.0606E-03
680.00,8.3054E-03
685.00,6.6402E-03
690.00,9.0629E-03
695.00,8.9795E-03
700.00,8.2836E-03
705.00,3.1348E-03
710.00,4.1058E-03
715.00,4.3103E-03
720.00,3.9018E-03
725.00,6.9399E-03
730.00,5.0161E-03
